timestamp_unix,timestamp_polar_ns,sample_index,ecg_uv
1778657089.347847,599616050947939402,0,-10362
1778657089.355540,599616050955631709,0,-12160
1778657089.363232,599616050963324016,0,-14510
1778657089.370924,599616050971016323,0,-18968
1778657089.378617,599616050978708630,0,-19700
1778657089.386309,599616050986400937,0,-19700
1778657089.394001,599616050994093244,0,-19700
1778657089.401694,599616051001785551,0,-19700
1778657089.409386,599616051009477858,0,-19700
1778657089.417078,599616051017170165,0,-19700
1778657089.424771,599616051024862472,0,-19700
1778657089.432463,599616051032554779,0,-19700
1778657089.440155,599616051040247086,0,-19700
1778657089.447847,599616051047939393,0,-19700
1778657089.455540,599616051055631700,0,-19332
1778657089.463232,599616051063324007,0,-18973
1778657089.470924,599616051071016314,0,-18423
1778657089.478617,599616051078708621,0,-18002
1778657089.486309,599616051086400928,0,-17720
1778657089.494001,599616051094093235,0,-17333
1778657089.501693,599616051101785542,0,-16905
1778657089.509386,599616051109477849,0,-16520
1778657089.517078,599616051117170156,0,-16143
1778657089.524770,599616051124862463,0,-15782
1778657089.532463,599616051132554770,0,-15395
1778657089.540155,599616051140247077,0,-15032
1778657089.547848,599616051147939384,0,-14705
1778657089.555540,599616051155631691,0,-14313
1778657089.563232,599616051163323998,0,-13926
1778657089.570924,599616051171016305,0,-13579
1778657089.578617,599616051178708612,0,-13257
1778657089.586309,599616051186400919,0,-12961
1778657089.594001,599616051194093226,0,-12639
1778657089.601694,599616051201785533,0,-12312
1778657089.609386,599616051209477840,0,-12007
1778657089.617078,599616051217170147,0,-11708
1778657089.624770,599616051224862454,0,-11429
1778657089.632463,599616051232554761,0,-11150
1778657089.640155,599616051240247068,0,-10884
1778657089.647847,599616051247939375,0,-10621
1778657089.655540,599616051255631682,0,-10350
1778657089.663232,599616051263323989,0,-10104
1778657089.670924,599616051271016296,0,-9871
1778657089.678617,599616051278708603,0,-9662
1778657089.686309,599616051286400910,0,-9455
1778657089.694001,599616051294093217,0,-9198
1778657089.701694,599616051301785524,0,-8972
1778657089.709386,599616051309477831,0,-8777
1778657089.717078,599616051317170138,0,-8565
1778657089.724771,599616051324862445,0,-8375
1778657089.732463,599616051332554752,0,-8169
1778657089.740155,599616051340247059,0,-7971
1778657089.747847,599616051347939366,0,-7798
1778657089.755540,599616051355631673,0,-7601
1778657089.763232,599616051363323980,0,-7438
1778657089.770924,599616051371016287,0,-7284
1778657089.778617,599616051378708594,0,-7089
1778657089.786309,599616051386400901,0,-6928
1778657089.794001,599616051394093208,0,-6774
1778657089.801694,599616051401785515,0,-6608
1778657089.809386,599616051409477822,0,-6456
1778657089.817078,599616051417170129,0,-6310
1778657089.824770,599616051424862436,0,-6187
1778657089.832463,599616051432554743,0,-6038
1778657089.840155,599616051440247050,0,-5882
1778657089.847847,599616051447939357,0,-5752
1778657089.855540,599616051455631664,0,-5610
1778657089.863232,599616051463323971,0,-5497
1778657089.870924,599616051471016278,0,-5386
1778657089.878617,599616051478708585,0,-5252
1778657089.886309,599616051486400892,0,-5141
1778657089.894001,599616051494093199,0,-5016
1778657089.901694,599616051501785506,0,-4905
1778657089.843128,599616051509256976,73,-4819
1778657089.850820,599616051516949283,73,-4706
1778657089.858512,599616051524641590,73,-4595
1778657089.866205,599616051532333897,73,-4477
1778657089.873897,599616051540026204,73,-4374
1778657089.881589,599616051547718511,73,-4304
1778657089.889282,599616051555410818,73,-4196
1778657089.896974,599616051563103125,73,-4107
1778657089.904666,599616051570795432,73,-4035
1778657089.912359,599616051578487739,73,-3955
1778657089.920051,599616051586180046,73,-3888
1778657089.927743,599616051593872353,73,-3787
1778657089.935435,599616051601564660,73,-3710
1778657089.943128,599616051609256967,73,-3650
1778657089.950820,599616051616949274,73,-3539
1778657089.958512,599616051624641581,73,-3462
1778657089.966205,599616051632333888,73,-3422
1778657089.973897,599616051640026195,73,-3366
1778657089.981589,599616051647718502,73,-3244
1778657089.989282,599616051655410809,73,-2965
1778657089.996974,599616051663103116,73,-2592
1778657090.004666,599616051670795423,73,-2368
1778657090.012358,599616051678487730,73,-2654
1778657090.020051,599616051686180037,73,-3181
1778657090.027743,599616051693872344,73,-3232
1778657090.035435,599616051701564651,73,-2960
1778657090.043128,599616051709256958,73,-2823
1778657090.050820,599616051716949265,73,-2767
1778657090.058512,599616051724641572,73,-2710
1778657090.066205,599616051732333879,73,-2630
1778657090.073897,599616051740026186,73,-2558
1778657090.081589,599616051747718493,73,-2525
1778657090.089282,599616051755410800,73,-2464
1778657090.096974,599616051763103107,73,-2419
1778657090.104666,599616051770795414,73,-2375
1778657090.112359,599616051778487721,73,-2306
1778657090.120051,599616051786180028,73,-2272
1778657090.127743,599616051793872335,73,-2219
1778657090.135435,599616051801564642,73,-2176
1778657090.143128,599616051809256949,73,-2157
1778657090.150820,599616051816949256,73,-2092
1778657090.158512,599616051824641563,73,-2051
1778657090.166205,599616051832333870,73,-2015
1778657090.173897,599616051840026177,73,-1964
1778657090.181589,599616051847718484,73,-1933
1778657090.189281,599616051855410791,73,-1878
1778657090.196974,599616051863103098,73,-1842
1778657090.204666,599616051870795405,73,-1786
1778657090.212358,599616051878487712,73,-1712
1778657090.220051,599616051886180019,73,-1704
1778657090.227743,599616051893872326,73,-1666
1778657090.235435,599616051901564633,73,-1599
1778657090.243128,599616051909256940,73,-1565
1778657090.250820,599616051916949247,73,-1515
1778657090.258512,599616051924641554,73,-1486
1778657090.266205,599616051932333861,73,-1464
1778657090.273897,599616051940026168,73,-1430
1778657090.281589,599616051947718475,73,-1421
1778657090.289282,599616051955410782,73,-1409
1778657090.296974,599616051963103089,73,-1430
1778657090.304666,599616051970795396,73,-1450
1778657090.312358,599616051978487703,73,-1445
1778657090.320051,599616051986180010,73,-1488
1778657090.327743,599616051993872317,73,-1507
1778657090.335435,599616052001564624,73,-1500
1778657090.343128,599616052009256931,73,-1502
1778657090.350820,599616052016949238,73,-1478
1778657090.358512,599616052024641545,73,-1471
1778657090.366205,599616052032333852,73,-1452
1778657090.373897,599616052040026159,73,-1421
1778657090.381589,599616052047718466,73,-1416
1778657090.389282,599616052055410773,73,-1397
1778657090.396974,599616052063103080,73,-1368
1778657090.381987,599616052070574550,146,-1334
1778657090.389679,599616052078266857,146,-1320
1778657090.397372,599616052085959164,146,-1320
1778657090.405064,599616052093651471,146,-1286
1778657090.412756,599616052101343778,146,-1267
1778657090.420448,599616052109036085,146,-1240
1778657090.428141,599616052116728392,146,-1202
1778657090.435833,599616052124420699,146,-1209
1778657090.443525,599616052132113006,146,-1197
1778657090.451218,599616052139805313,146,-1163
1778657090.458910,599616052147497620,146,-1163
1778657090.466602,599616052155189927,146,-1144
1778657090.474294,599616052162882234,146,-1132
1778657090.481987,599616052170574541,146,-1115
1778657090.489679,599616052178266848,146,-1089
1778657090.497371,599616052185959155,146,-1089
1778657090.505064,599616052193651462,146,-1067
1778657090.512756,599616052201343769,146,-1050
1778657090.520448,599616052209036076,146,-1055
1778657090.528141,599616052216728383,146,-1038
1778657090.535833,599616052224420690,146,-1026
1778657090.543525,599616052232112997,146,-1010
1778657090.551218,599616052239805304,146,-995
1778657090.558910,599616052247497611,146,-993
1778657090.566602,599616052255189918,146,-971
1778657090.574295,599616052262882225,146,-966
1778657090.581987,599616052270574532,146,-952
1778657090.589679,599616052278266839,146,-925
1778657090.597371,599616052285959146,146,-937
1778657090.605064,599616052293651453,146,-923
1778657090.612756,599616052301343760,146,-904
1778657090.620448,599616052309036067,146,-901
1778657090.628141,599616052316728374,146,-880
1778657090.635833,599616052324420681,146,-875
1778657090.643525,599616052332112988,146,-870
1778657090.651218,599616052339805295,146,-856
1778657090.658910,599616052347497602,146,-860
1778657090.666602,599616052355189909,146,-846
1778657090.674294,599616052362882216,146,-832
1778657090.681987,599616052370574523,146,-836
1778657090.689679,599616052378266830,146,-827
1778657090.697371,599616052385959137,146,-800
1778657090.705064,599616052393651444,146,-795
1778657090.712756,599616052401343751,146,-803
1778657090.720448,599616052409036058,146,-783
1778657090.728141,599616052416728365,146,-767
1778657090.735833,599616052424420672,146,-774
1778657090.743525,599616052432112979,146,-771
1778657090.751218,599616052439805286,146,-774
1778657090.758910,599616052447497593,146,-767
1778657090.766602,599616052455189900,146,-735
1778657090.774295,599616052462882207,146,-714
1778657090.781987,599616052470574514,146,-709
1778657090.789679,599616052478266821,146,-714
1778657090.797371,599616052485959128,146,-719
1778657090.805064,599616052493651435,146,-711
1778657090.812756,599616052501343742,146,-709
1778657090.820448,599616052509036049,146,-709
1778657090.828141,599616052516728356,146,-711
1778657090.835833,599616052524420663,146,-709
1778657090.843525,599616052532112970,146,-699
1778657090.851218,599616052539805277,146,-687
1778657090.858910,599616052547497584,146,-682
1778657090.866602,599616052555189891,146,-673
1778657090.874295,599616052562882198,146,-663
1778657090.881987,599616052570574505,146,-668
1778657090.889679,599616052578266812,146,-673
1778657090.897372,599616052585959119,146,-610
1778657090.905064,599616052593651426,146,-418
1778657090.912756,599616052601343733,146,-125
1778657090.920448,599616052609036040,146,-12
1778657090.928141,599616052616728347,146,-365
1778657090.935833,599616052624420654,146,-848
1778657090.967460,599616052631892124,219,-921
1778657090.975152,599616052639584431,219,-743
1778657090.982844,599616052647276738,219,-673
1778657090.990536,599616052654969045,219,-680
1778657090.998229,599616052662661352,219,-666
1778657091.005921,599616052670353659,219,-656
1778657091.013613,599616052678045966,219,-663
1778657091.021306,599616052685738273,219,-651
1778657091.028998,599616052693430580,219,-632
1778657091.036690,599616052701122887,219,-627
1778657091.044383,599616052708815194,219,-627
1778657091.052075,599616052716507501,219,-630
1778657091.059767,599616052724199808,219,-618
1778657091.067460,599616052731892115,219,-586
1778657091.075152,599616052739584422,219,-577
1778657091.082844,599616052747276729,219,-584
1778657091.090537,599616052754969036,219,-584
1778657091.098229,599616052762661343,219,-584
1778657091.105921,599616052770353650,219,-560
1778657091.113614,599616052778045957,219,-526
1778657091.121306,599616052785738264,219,-517
1778657091.128998,599616052793430571,219,-517
1778657091.136690,599616052801122878,219,-512
1778657091.144383,599616052808815185,219,-497
1778657091.152075,599616052816507492,219,-485
1778657091.159767,599616052824199799,219,-473
1778657091.167460,599616052831892106,219,-444
1778657091.175152,599616052839584413,219,-440
1778657091.182844,599616052847276720,219,-435
1778657091.190536,599616052854969027,219,-384
1778657091.198229,599616052862661334,219,-375
1778657091.205921,599616052870353641,219,-372
1778657091.213614,599616052878045948,219,-339
1778657091.221306,599616052885738255,219,-365
1778657091.228998,599616052893430562,219,-396
1778657091.236691,599616052901122869,219,-425
1778657091.244383,599616052908815176,219,-466
1778657091.252075,599616052916507483,219,-478
1778657091.259767,599616052924199790,219,-526
1778657091.267460,599616052931892097,219,-586
1778657091.275152,599616052939584404,219,-593
1778657091.282844,599616052947276711,219,-591
1778657091.290537,599616052954969018,219,-593
1778657091.298229,599616052962661325,219,-620
1778657091.305921,599616052970353632,219,-632
1778657091.313613,599616052978045939,219,-601
1778657091.321306,599616052985738246,219,-596
1778657091.328998,599616052993430553,219,-584
1778657091.336690,599616053001122860,219,-579
1778657091.344383,599616053008815167,219,-596
1778657091.352075,599616053016507474,219,-579
1778657091.359767,599616053024199781,219,-572
1778657091.367460,599616053031892088,219,-572
1778657091.375152,599616053039584395,219,-569
1778657091.382844,599616053047276702,219,-579
1778657091.390537,599616053054969009,219,-553
1778657091.398229,599616053062661316,219,-550
1778657091.405921,599616053070353623,219,-565
1778657091.413614,599616053078045930,219,-541
1778657091.421306,599616053085738237,219,-543
1778657091.428998,599616053093430544,219,-541
1778657091.436690,599616053101122851,219,-529
1778657091.444383,599616053108815158,219,-543
1778657091.452075,599616053116507465,219,-536
1778657091.459767,599616053124199772,219,-536
1778657091.467460,599616053131892079,219,-524
1778657091.475152,599616053139584386,219,-505
1778657091.482844,599616053147276693,219,-533
1778657091.490536,599616053154969000,219,-538
1778657091.498229,599616053162661307,219,-521
1778657091.505921,599616053170353614,219,-519
1778657091.513613,599616053178045921,219,-502
1778657091.521306,599616053185738228,219,-502
1778657091.502023,599616053193209698,292,-509
1778657091.509715,599616053200902005,292,-514
1778657091.517408,599616053208594312,292,-519
1778657091.525100,599616053216286619,292,-509
1778657091.532792,599616053223978926,292,-517
1778657091.540484,599616053231671233,292,-507
1778657091.548177,599616053239363540,292,-480
1778657091.555869,599616053247055847,292,-495
1778657091.563561,599616053254748154,292,-492
1778657091.571254,599616053262440461,292,-485
1778657091.578946,599616053270132768,292,-507
1778657091.586638,599616053277825075,292,-509
1778657091.594331,599616053285517382,292,-505
1778657091.602023,599616053293209689,292,-497
1778657091.609715,599616053300901996,292,-483
1778657091.617408,599616053308594303,292,-488
1778657091.625100,599616053316286610,292,-492
1778657091.632792,599616053323978917,292,-497
1778657091.640485,599616053331671224,292,-495
1778657091.648177,599616053339363531,292,-483
1778657091.655869,599616053347055838,292,-478
1778657091.663561,599616053354748145,292,-461
1778657091.671254,599616053362440452,292,-454
1778657091.678946,599616053370132759,292,-466
1778657091.686638,599616053377825066,292,-468
1778657091.694331,599616053385517373,292,-471
1778657091.702023,599616053393209680,292,-473
1778657091.709715,599616053400901987,292,-485
1778657091.717407,599616053408594294,292,-488
1778657091.725100,599616053416286601,292,-471
1778657091.732792,599616053423978908,292,-476
1778657091.740484,599616053431671215,292,-480
1778657091.748177,599616053439363522,292,-468
1778657091.755869,599616053447055829,292,-473
1778657091.763561,599616053454748136,292,-468
1778657091.771254,599616053462440443,292,-471
1778657091.778946,599616053470132750,292,-459
1778657091.786638,599616053477825057,292,-339
1778657091.794331,599616053485517364,292,-72
1778657091.802023,599616053493209671,292,211
1778657091.809715,599616053500901978,292,103
1778657091.817408,599616053508594285,292,-459
1778657091.825100,599616053516286592,292,-808
1778657091.832792,599616053523978899,292,-690
1778657091.840484,599616053531671206,292,-526
1778657091.848177,599616053539363513,292,-517
1778657091.855869,599616053547055820,292,-521
1778657091.863561,599616053554748127,292,-495
1778657091.871254,599616053562440434,292,-490
1778657091.878946,599616053570132741,292,-488
1778657091.886638,599616053577825048,292,-473
1778657091.894331,599616053585517355,292,-480
1778657091.902023,599616053593209662,292,-483
1778657091.909715,599616053600901969,292,-468
1778657091.917408,599616053608594276,292,-464
1778657091.925100,599616053616286583,292,-459
1778657091.932792,599616053623978890,292,-464
1778657091.940485,599616053631671197,292,-468
1778657091.948177,599616053639363504,292,-454
1778657091.955869,599616053647055811,292,-449
1778657091.963561,599616053654748118,292,-440
1778657091.971254,599616053662440425,292,-437
1778657091.978946,599616053670132732,292,-435
1778657091.986638,599616053677825039,292,-420
1778657091.994331,599616053685517346,292,-418
1778657092.002023,599616053693209653,292,-401
1778657092.009715,599616053700901960,292,-379
1778657092.017408,599616053708594267,292,-377
1778657092.025100,599616053716286574,292,-360
1778657092.032792,599616053723978881,292,-341
1778657092.040484,599616053731671188,292,-322
1778657092.048177,599616053739363495,292,-303
1778657092.055869,599616053747055802,292,-303
1778657092.047690,599616053754527272,365,-288
1778657092.055382,599616053762219579,365,-283
1778657092.063075,599616053769911886,365,-300
1778657092.070767,599616053777604193,365,-307
1778657092.078459,599616053785296500,365,-343
1778657092.086151,599616053792988807,365,-379
1778657092.093844,599616053800681114,365,-413
1778657092.101536,599616053808373421,365,-476
1778657092.109228,599616053816065728,365,-509
1778657092.116921,599616053823758035,365,-536
1778657092.124613,599616053831450342,365,-565
1778657092.132305,599616053839142649,365,-574
1778657092.139997,599616053846834956,365,-586
1778657092.147690,599616053854527263,365,-581
1778657092.155382,599616053862219570,365,-579
1778657092.163074,599616053869911877,365,-589
1778657092.170767,599616053877604184,365,-586
1778657092.178459,599616053885296491,365,-586
1778657092.186152,599616053892988798,365,-581
1778657092.193844,599616053900681105,365,-574
1778657092.201536,599616053908373412,365,-579
1778657092.209228,599616053916065719,365,-560
1778657092.216921,599616053923758026,365,-550
1778657092.224613,599616053931450333,365,-557
1778657092.232305,599616053939142640,365,-560
1778657092.239998,599616053946834947,365,-560
1778657092.247690,599616053954527254,365,-548
1778657092.255382,599616053962219561,365,-545
1778657092.263074,599616053969911868,365,-560
1778657092.270767,599616053977604175,365,-553
1778657092.278459,599616053985296482,365,-550
1778657092.286151,599616053992988789,365,-545
1778657092.293844,599616054000681096,365,-541
1778657092.301536,599616054008373403,365,-550
1778657092.309228,599616054016065710,365,-541
1778657092.316921,599616054023758017,365,-538
1778657092.324613,599616054031450324,365,-545
1778657092.332305,599616054039142631,365,-543
1778657092.339998,599616054046834938,365,-545
1778657092.347690,599616054054527245,365,-541
1778657092.355382,599616054062219552,365,-541
1778657092.363075,599616054069911859,365,-548
1778657092.370767,599616054077604166,365,-541
1778657092.378459,599616054085296473,365,-545
1778657092.386151,599616054092988780,365,-548
1778657092.393844,599616054100681087,365,-541
1778657092.401536,599616054108373394,365,-548
1778657092.409228,599616054116065701,365,-536
1778657092.416921,599616054123758008,365,-531
1778657092.424613,599616054131450315,365,-541
1778657092.432305,599616054139142622,365,-533
1778657092.439998,599616054146834929,365,-536
1778657092.447690,599616054154527236,365,-543
1778657092.455382,599616054162219543,365,-543
1778657092.463074,599616054169911850,365,-536
1778657092.470767,599616054177604157,365,-521
1778657092.478459,599616054185296464,365,-536
1778657092.486151,599616054192988771,365,-545
1778657092.493844,599616054200681078,365,-533
1778657092.501536,599616054208373385,365,-538
1778657092.509228,599616054216065692,365,-536
1778657092.516921,599616054223757999,365,-533
1778657092.524613,599616054231450306,365,-521
1778657092.532305,599616054239142613,365,-500
1778657092.539998,599616054246834920,365,-505
1778657092.547690,599616054254527227,365,-507
1778657092.555382,599616054262219534,365,-507
1778657092.563075,599616054269911841,365,-519
1778657092.570767,599616054277604148,365,-514
1778657092.578459,599616054285296455,365,-526
1778657092.586151,599616054292988762,365,-536
1778657092.593844,599616054300681069,365,-524
1778657092.601536,599616054308373376,365,-521
1778657092.696426,599616054315844846,438,-514
1778657092.704119,599616054323537153,438,-514
1778657092.711811,599616054331229460,438,-519
1778657092.719503,599616054338921767,438,-521
1778657092.727196,599616054346614074,438,-524
1778657092.734888,599616054354306381,438,-420
1778657092.742580,599616054361998688,438,-161
1778657092.750273,599616054369690995,438,149
1778657092.757965,599616054377383302,438,168
1778657092.765657,599616054385075609,438,-358
1778657092.773350,599616054392767916,438,-856
1778657092.781042,599616054400460223,438,-805
1778657092.788734,599616054408152530,438,-606
1778657092.796426,599616054415844837,438,-567
1778657092.804119,599616054423537144,438,-560
1778657092.811811,599616054431229451,438,-531
1778657092.819503,599616054438921758,438,-519
1778657092.827196,599616054446614065,438,-526
1778657092.834888,599616054454306372,438,-514
1778657092.842580,599616054461998679,438,-505
1778657092.850272,599616054469690986,438,-509
1778657092.857965,599616054477383293,438,-500
1778657092.865657,599616054485075600,438,-500
1778657092.873349,599616054492767907,438,-492
1778657092.881042,599616054500460214,438,-478
1778657092.888734,599616054508152521,438,-483
1778657092.896426,599616054515844828,438,-473
1778657092.904119,599616054523537135,438,-468
1778657092.911811,599616054531229442,438,-466
1778657092.919503,599616054538921749,438,-444
1778657092.927196,599616054546614056,438,-444
1778657092.934888,599616054554306363,438,-444
1778657092.942580,599616054561998670,438,-423
1778657092.950273,599616054569690977,438,-406
1778657092.957965,599616054577383284,438,-391
1778657092.965657,599616054585075591,438,-396
1778657092.973349,599616054592767898,438,-384
1778657092.981042,599616054600460205,438,-348
1778657092.988734,599616054608152512,438,-331
1778657092.996426,599616054615844819,438,-312
1778657093.004119,599616054623537126,438,-298
1778657093.011811,599616054631229433,438,-300
1778657093.019503,599616054638921740,438,-293
1778657093.027196,599616054646614047,438,-295
1778657093.034888,599616054654306354,438,-307
1778657093.042580,599616054661998661,438,-334
1778657093.050272,599616054669690968,438,-377
1778657093.057965,599616054677383275,438,-411
1778657093.065657,599616054685075582,438,-459
1778657093.073349,599616054692767889,438,-502
1778657093.081042,599616054700460196,438,-526
1778657093.088734,599616054708152503,438,-562
1778657093.096426,599616054715844810,438,-572
1778657093.104119,599616054723537117,438,-572
1778657093.111811,599616054731229424,438,-581
1778657093.119503,599616054738921731,438,-581
1778657093.127196,599616054746614038,438,-589
1778657093.134888,599616054754306345,438,-581
1778657093.142580,599616054761998652,438,-572
1778657093.150273,599616054769690959,438,-577
1778657093.157965,599616054777383266,438,-560
1778657093.165657,599616054785075573,438,-557
1778657093.173349,599616054792767880,438,-569
1778657093.181042,599616054800460187,438,-555
1778657093.188734,599616054808152494,438,-543
1778657093.196426,599616054815844801,438,-529
1778657093.204119,599616054823537108,438,-536
1778657093.211811,599616054831229415,438,-538
1778657093.219503,599616054838921722,438,-507
1778657093.227196,599616054846614029,438,-519
1778657093.234888,599616054854306336,438,-531
1778657093.242580,599616054861998643,438,-514
1778657093.250273,599616054869690950,438,-521
1778657093.217769,599616054877152246,511,-517
1778657093.225461,599616054884844553,511,-514
1778657093.233153,599616054892536860,511,-521
1778657093.240845,599616054900229167,511,-507
1778657093.248538,599616054907921474,511,-512
1778657093.256230,599616054915613781,511,-509
1778657093.263922,599616054923306088,511,-509
1778657093.271615,599616054930998395,511,-512
1778657093.279307,599616054938690702,511,-497
1778657093.286999,599616054946383009,511,-502
1778657093.294692,599616054954075316,511,-507
1778657093.302384,599616054961767623,511,-507
1778657093.310076,599616054969459930,511,-517
1778657093.317769,599616054977152237,511,-502
1778657093.325461,599616054984844544,511,-497
1778657093.333153,599616054992536851,511,-500
1778657093.340846,599616055000229158,511,-485
1778657093.348538,599616055007921465,511,-488
1778657093.356230,599616055015613772,511,-488
1778657093.363923,599616055023306079,511,-502
1778657093.371615,599616055030998386,511,-509
1778657093.379307,599616055038690693,511,-495
1778657093.386999,599616055046383000,511,-512
1778657093.394692,599616055054075307,511,-500
1778657093.402384,599616055061767614,511,-452
1778657093.410076,599616055069459921,511,-461
1778657093.417769,599616055077152228,511,-478
1778657093.425461,599616055084844535,511,-480
1778657093.433153,599616055092536842,511,-495
1778657093.440845,599616055100229149,511,-500
1778657093.448538,599616055107921456,511,-512
1778657093.456230,599616055115613763,511,-514
1778657093.463923,599616055123306070,511,-500
1778657093.471615,599616055130998377,511,-495
1778657093.479307,599616055138690684,511,-500
1778657093.487000,599616055146382991,511,-509
1778657093.494692,599616055154075298,511,-507
1778657093.502384,599616055161767605,511,-488
1778657093.510076,599616055169459912,511,-375
1778657093.517769,599616055177152219,511,-79
1778657093.525461,599616055184844526,511,228
1778657093.533153,599616055192536833,511,141
1778657093.540846,599616055200229140,511,-447
1778657093.548538,599616055207921447,511,-930
1778657093.556230,599616055215613754,511,-844
1778657093.563922,599616055223306061,511,-608
1778657093.571615,599616055230998368,511,-572
1778657093.579307,599616055238690675,511,-560
1778657093.586999,599616055246382982,511,-519
1778657093.594692,599616055254075289,511,-502
1778657093.602384,599616055261767596,511,-497
1778657093.610076,599616055269459903,511,-505
1778657093.617769,599616055277152210,511,-497
1778657093.625461,599616055284844517,511,-492
1778657093.633153,599616055292536824,511,-502
1778657093.640846,599616055300229131,511,-497
1778657093.648538,599616055307921438,511,-485
1778657093.656230,599616055315613745,511,-464
1778657093.663923,599616055323306052,511,-466
1778657093.671615,599616055330998359,511,-488
1778657093.679307,599616055338690666,511,-471
1778657093.686999,599616055346382973,511,-447
1778657093.694692,599616055354075280,511,-444
1778657093.702384,599616055361767587,511,-449
1778657093.710076,599616055369459894,511,-440
1778657093.717769,599616055377152201,511,-406
1778657093.725461,599616055384844508,511,-394
1778657093.733153,599616055392536815,511,-404
1778657093.740845,599616055400229122,511,-379
1778657093.748538,599616055407921429,511,-351
1778657093.756230,599616055415613736,511,-329
1778657093.763922,599616055423306043,511,-307
1778657093.771615,599616055430998350,511,-300
1778657093.757785,599616055438464733,584,-274
1778657093.765477,599616055446157040,584,-252
1778657093.773170,599616055453849347,584,-281
1778657093.780862,599616055461541654,584,-310
1778657093.788554,599616055469233961,584,-317
1778657093.796247,599616055476926268,584,-331
1778657093.803939,599616055484618575,584,-394
1778657093.811631,599616055492310882,584,-464
1778657093.819324,599616055500003189,584,-502
1778657093.827016,599616055507695496,584,-545
1778657093.834708,599616055515387803,584,-593
1778657093.842401,599616055523080110,584,-634
1778657093.850093,599616055530772417,584,-644
1778657093.857785,599616055538464724,584,-632
1778657093.865477,599616055546157031,584,-668
1778657093.873170,599616055553849338,584,-685
1778657093.880862,599616055561541645,584,-658
1778657093.888554,599616055569233952,584,-682
1778657093.896247,599616055576926259,584,-702
1778657093.903939,599616055584618566,584,-651
1778657093.911631,599616055592310873,584,-620
1778657093.919323,599616055600003180,584,-656
1778657093.927016,599616055607695487,584,-678
1778657093.934708,599616055615387794,584,-644
1778657093.942400,599616055623080101,584,-630
1778657093.950093,599616055630772408,584,-630
1778657093.957785,599616055638464715,584,-632
1778657093.965477,599616055646157022,584,-646
1778657093.973170,599616055653849329,584,-622
1778657093.980862,599616055661541636,584,-608
1778657093.988554,599616055669233943,584,-644
1778657093.996247,599616055676926250,584,-646
1778657094.003939,599616055684618557,584,-618
1778657094.011631,599616055692310864,584,-615
1778657094.019324,599616055700003171,584,-622
1778657094.027016,599616055707695478,584,-632
1778657094.034708,599616055715387785,584,-639
1778657094.042400,599616055723080092,584,-630
1778657094.050093,599616055730772399,584,-627
1778657094.057785,599616055738464706,584,-627
1778657094.065477,599616055746157013,584,-625
1778657094.073170,599616055753849320,584,-618
1778657094.080862,599616055761541627,584,-627
1778657094.088554,599616055769233934,584,-642
1778657094.096246,599616055776926241,584,-618
1778657094.103939,599616055784618548,584,-598
1778657094.111631,599616055792310855,584,-610
1778657094.119323,599616055800003162,584,-618
1778657094.127016,599616055807695469,584,-591
1778657094.134708,599616055815387776,584,-567
1778657094.142401,599616055823080083,584,-606
1778657094.150093,599616055830772390,584,-620
1778657094.157785,599616055838464697,584,-557
1778657094.165477,599616055846157004,584,-574
1778657094.173170,599616055853849311,584,-646
1778657094.180862,599616055861541618,584,-620
1778657094.188554,599616055869233925,584,-569
1778657094.196247,599616055876926232,584,-572
1778657094.203939,599616055884618539,584,-589
1778657094.211631,599616055892310846,584,-591
1778657094.219323,599616055900003153,584,-577
1778657094.227016,599616055907695460,584,-488
1778657094.234708,599616055915387767,584,-218
1778657094.242400,599616055923080074,584,153
1778657094.250093,599616055930772381,584,214
1778657094.257785,599616055938464688,584,-341
1778657094.265477,599616055946156995,584,-990
1778657094.273170,599616055953849302,584,-1034
1778657094.280862,599616055961541609,584,-752
1778657094.288554,599616055969233916,584,-649
1778657094.296247,599616055976926223,584,-603
1778657094.303939,599616055984618530,584,-557
1778657094.311631,599616055992310837,584,-569
1778657094.342371,599616055999767050,657,-560
1778657094.350064,599616056007459357,657,-533
1778657094.357756,599616056015151664,657,-529
1778657094.365448,599616056022843971,657,-524
1778657094.373140,599616056030536278,657,-505
1778657094.380833,599616056038228585,657,-497
1778657094.388525,599616056045920892,657,-507
1778657094.396217,599616056053613199,657,-505
1778657094.403910,599616056061305506,657,-492
1778657094.411602,599616056068997813,657,-480
1778657094.419294,599616056076690120,657,-466
1778657094.426987,599616056084382427,657,-466
1778657094.434679,599616056092074734,657,-466
1778657094.442371,599616056099767041,657,-432
1778657094.450063,599616056107459348,657,-418
1778657094.457756,599616056115151655,657,-420
1778657094.465448,599616056122843962,657,-391
1778657094.473140,599616056130536269,657,-370
1778657094.480833,599616056138228576,657,-355
1778657094.488525,599616056145920883,657,-336
1778657094.496217,599616056153613190,657,-312
1778657094.503910,599616056161305497,657,-283
1778657094.511602,599616056168997804,657,-254
1778657094.519294,599616056176690111,657,-230
1778657094.526987,599616056184382418,657,-233
1778657094.534679,599616056192074725,657,-247
1778657094.542371,599616056199767032,657,-254
1778657094.550064,599616056207459339,657,-274
1778657094.557756,599616056215151646,657,-300
1778657094.565448,599616056222843953,657,-351
1778657094.573140,599616056230536260,657,-423
1778657094.580833,599616056238228567,657,-490
1778657094.588525,599616056245920874,657,-526
1778657094.596217,599616056253613181,657,-541
1778657094.603910,599616056261305488,657,-572
1778657094.611602,599616056268997795,657,-601
1778657094.619294,599616056276690102,657,-591
1778657094.626987,599616056284382409,657,-589
1778657094.634679,599616056292074716,657,-596
1778657094.642371,599616056299767023,657,-579
1778657094.650064,599616056307459330,657,-584
1778657094.657756,599616056315151637,657,-581
1778657094.665448,599616056322843944,657,-555
1778657094.673141,599616056330536251,657,-555
1778657094.680833,599616056338228558,657,-557
1778657094.688525,599616056345920865,657,-550
1778657094.696217,599616056353613172,657,-533
1778657094.703910,599616056361305479,657,-524
1778657094.711602,599616056368997786,657,-541
1778657094.719294,599616056376690093,657,-531
1778657094.726987,599616056384382400,657,-512
1778657094.734679,599616056392074707,657,-512
1778657094.742371,599616056399767014,657,-507
1778657094.750063,599616056407459321,657,-507
1778657094.757756,599616056415151628,657,-512
1778657094.765448,599616056422843935,657,-514
1778657094.773140,599616056430536242,657,-509
1778657094.780833,599616056438228549,657,-502
1778657094.788525,599616056445920856,657,-505
1778657094.796217,599616056453613163,657,-497
1778657094.803910,599616056461305470,657,-490
1778657094.811602,599616056468997777,657,-514
1778657094.819294,599616056476690084,657,-509
1778657094.826987,599616056484382391,657,-473
1778657094.834679,599616056492074698,657,-480
1778657094.842371,599616056499767005,657,-505
1778657094.850064,599616056507459312,657,-490
1778657094.857756,599616056515151619,657,-476
1778657094.865448,599616056522843926,657,-490
1778657094.873140,599616056530536233,657,-495
1778657094.880833,599616056538228540,657,-476
1778657094.888525,599616056545920847,657,-480
1778657094.896217,599616056553613154,657,-478
1778657094.882298,599616056561084624,730,-452
1778657094.889991,599616056568776931,730,-442
1778657094.897683,599616056576469238,730,-437
1778657094.905375,599616056584161545,730,-449
1778657094.913068,599616056591853852,730,-483
1778657094.920760,599616056599546159,730,-478
1778657094.928452,599616056607238466,730,-456
1778657094.936145,599616056614930773,730,-464
1778657094.943837,599616056622623080,730,-471
1778657094.951529,599616056630315387,730,-459
1778657094.959222,599616056638007694,730,-447
1778657094.966914,599616056645700001,730,-471
1778657094.974606,599616056653392308,730,-483
1778657094.982298,599616056661084615,730,-449
1778657094.989991,599616056668776922,730,-315
1778657094.997683,599616056676469229,730,24
1778657095.005375,599616056684161536,730,365
1778657095.013068,599616056691853843,730,209
1778657095.020760,599616056699546150,730,-466
1778657095.028452,599616056707238457,730,-940
1778657095.036144,599616056714930764,730,-803
1778657095.043837,599616056722623071,730,-553
1778657095.051529,599616056730315378,730,-517
1778657095.059222,599616056738007685,730,-497
1778657095.066914,599616056745699992,730,-468
1778657095.074606,599616056753392299,730,-478
1778657095.082299,599616056761084606,730,-471
1778657095.089991,599616056768776913,730,-447
1778657095.097683,599616056776469220,730,-425
1778657095.105375,599616056784161527,730,-444
1778657095.113068,599616056791853834,730,-464
1778657095.120760,599616056799546141,730,-430
1778657095.128452,599616056807238448,730,-418
1778657095.136145,599616056814930755,730,-428
1778657095.143837,599616056822623062,730,-413
1778657095.151529,599616056830315369,730,-416
1778657095.159221,599616056838007676,730,-401
1778657095.166914,599616056845699983,730,-372
1778657095.174606,599616056853392290,730,-387
1778657095.182298,599616056861084597,730,-404
1778657095.189991,599616056868776904,730,-372
1778657095.197683,599616056876469211,730,-331
1778657095.205375,599616056884161518,730,-334
1778657095.213068,599616056891853825,730,-341
1778657095.220760,599616056899546132,730,-295
1778657095.228452,599616056907238439,730,-269
1778657095.236145,599616056914930746,730,-271
1778657095.243837,599616056922623053,730,-240
1778657095.251529,599616056930315360,730,-214
1778657095.259222,599616056938007667,730,-206
1778657095.266914,599616056945699974,730,-209
1778657095.274606,599616056953392281,730,-223
1778657095.282298,599616056961084588,730,-218
1778657095.289991,599616056968776895,730,-235
1778657095.297683,599616056976469202,730,-312
1778657095.305375,599616056984161509,730,-379
1778657095.313068,599616056991853816,730,-387
1778657095.320760,599616056999546123,730,-418
1778657095.328452,599616057007238430,730,-512
1778657095.336145,599616057014930737,730,-555
1778657095.343837,599616057022623044,730,-538
1778657095.351529,599616057030315351,730,-541
1778657095.359221,599616057038007658,730,-553
1778657095.366914,599616057045699965,730,-560
1778657095.374606,599616057053392272,730,-565
1778657095.382298,599616057061084579,730,-557
1778657095.389991,599616057068776886,730,-574
1778657095.397683,599616057076469193,730,-560
1778657095.405375,599616057084161500,730,-531
1778657095.413068,599616057091853807,730,-555
1778657095.420760,599616057099546114,730,-531
1778657095.428452,599616057107238421,730,-485
1778657095.436145,599616057114930728,730,-524
1778657095.422582,599616057122371676,803,-545
1778657095.430275,599616057130063983,803,-492
1778657095.437967,599616057137756290,803,-488
1778657095.445659,599616057145448597,803,-521
1778657095.453351,599616057153140904,803,-500
1778657095.461044,599616057160833211,803,-483
1778657095.468736,599616057168525518,803,-502
1778657095.476429,599616057176217825,803,-468
1778657095.484121,599616057183910132,803,-454
1778657095.491813,599616057191602439,803,-519
1778657095.499506,599616057199294746,803,-529
1778657095.507198,599616057206987053,803,-488
1778657095.514890,599616057214679360,803,-478
1778657095.522582,599616057222371667,803,-476
1778657095.530275,599616057230063974,803,-478
1778657095.537967,599616057237756281,803,-468
1778657095.545659,599616057245448588,803,-464
1778657095.553352,599616057253140895,803,-471
1778657095.561044,599616057260833202,803,-435
1778657095.568736,599616057268525509,803,-459
1778657095.576428,599616057276217816,803,-507
1778657095.584121,599616057283910123,803,-461
1778657095.591813,599616057291602430,803,-449
1778657095.599505,599616057299294737,803,-480
1778657095.607198,599616057306987044,803,-464
1778657095.614890,599616057314679351,803,-447
1778657095.622582,599616057322371658,803,-464
1778657095.630275,599616057330063965,803,-478
1778657095.637967,599616057337756272,803,-447
1778657095.645659,599616057345448579,803,-322
1778657095.653352,599616057353140886,803,-38
1778657095.661044,599616057360833193,803,346
1778657095.668736,599616057368525500,803,327
1778657095.676429,599616057376217807,803,-343
1778657095.684121,599616057383910114,803,-935
1778657095.691813,599616057391602421,803,-872
1778657095.699505,599616057399294728,803,-603
1778657095.707198,599616057406987035,803,-533
1778657095.714890,599616057414679342,803,-492
1778657095.722582,599616057422371649,803,-432
1778657095.730275,599616057430063956,803,-459
1778657095.737967,599616057437756263,803,-454
1778657095.745659,599616057445448570,803,-411
1778657095.753352,599616057453140877,803,-425
1778657095.761044,599616057460833184,803,-442
1778657095.768736,599616057468525491,803,-430
1778657095.776428,599616057476217798,803,-394
1778657095.784121,599616057483910105,803,-384
1778657095.791813,599616057491602412,803,-416
1778657095.799505,599616057499294719,803,-404
1778657095.807198,599616057506987026,803,-372
1778657095.814890,599616057514679333,803,-365
1778657095.822582,599616057522371640,803,-372
1778657095.830275,599616057530063947,803,-372
1778657095.837967,599616057537756254,803,-331
1778657095.845659,599616057545448561,803,-317
1778657095.853352,599616057553140868,803,-339
1778657095.861044,599616057560833175,803,-307
1778657095.868736,599616057568525482,803,-271
1778657095.876429,599616057576217789,803,-266
1778657095.884121,599616057583910096,803,-245
1778657095.891813,599616057591602403,803,-206
1778657095.899505,599616057599294710,803,-175
1778657095.907198,599616057606987017,803,-177
1778657095.914890,599616057614679324,803,-173
1778657095.922582,599616057622371631,803,-151
1778657095.930275,599616057630063938,803,-170
1778657095.937967,599616057637756245,803,-187
1778657095.945659,599616057645448552,803,-202
1778657095.953351,599616057653140859,803,-264
1778657095.961044,599616057660833166,803,-331
1778657095.968736,599616057668525473,803,-399
1778657095.976429,599616057676217780,803,-435
1778657096.051869,599616057683689254,876,-444
1778657096.059562,599616057691381561,876,-507
1778657096.067254,599616057699073868,876,-555
1778657096.074946,599616057706766175,876,-536
1778657096.082639,599616057714458482,876,-529
1778657096.090331,599616057722150789,876,-543
1778657096.098023,599616057729843096,876,-543
1778657096.105716,599616057737535403,876,-541
1778657096.113408,599616057745227710,876,-521
1778657096.121100,599616057752920017,876,-500
1778657096.128793,599616057760612324,876,-521
1778657096.136485,599616057768304631,876,-541
1778657096.144177,599616057775996938,876,-495
1778657096.151869,599616057783689245,876,-468
1778657096.159562,599616057791381552,876,-495
1778657096.167254,599616057799073859,876,-495
1778657096.174946,599616057806766166,876,-485
1778657096.182639,599616057814458473,876,-483
1778657096.190331,599616057822150780,876,-456
1778657096.198023,599616057829843087,876,-456
1778657096.205715,599616057837535394,876,-471
1778657096.213408,599616057845227701,876,-466
1778657096.221100,599616057852920008,876,-452
1778657096.228792,599616057860612315,876,-454
1778657096.236485,599616057868304622,876,-488
1778657096.244177,599616057875996929,876,-461
1778657096.251869,599616057883689236,876,-418
1778657096.259562,599616057891381543,876,-447
1778657096.267254,599616057899073850,876,-456
1778657096.274946,599616057906766157,876,-432
1778657096.282639,599616057914458464,876,-425
1778657096.290331,599616057922150771,876,-435
1778657096.298023,599616057929843078,876,-461
1778657096.305716,599616057937535385,876,-461
1778657096.313408,599616057945227692,876,-449
1778657096.321100,599616057952919999,876,-449
1778657096.328792,599616057960612306,876,-428
1778657096.336485,599616057968304613,876,-428
1778657096.344177,599616057975996920,876,-461
1778657096.351869,599616057983689227,876,-456
1778657096.359562,599616057991381534,876,-375
1778657096.367254,599616057999073841,876,-132
1778657096.374946,599616058006766148,876,240
1778657096.382639,599616058014458455,876,396
1778657096.390331,599616058022150762,876,-76
1778657096.398023,599616058029843069,876,-805
1778657096.405715,599616058037535376,876,-942
1778657096.413408,599616058045227683,876,-630
1778657096.421100,599616058052919990,876,-488
1778657096.428792,599616058060612297,876,-488
1778657096.436485,599616058068304604,876,-444
1778657096.444177,599616058075996911,876,-418
1778657096.451869,599616058083689218,876,-430
1778657096.459562,599616058091381525,876,-440
1778657096.467254,599616058099073832,876,-418
1778657096.474946,599616058106766139,876,-401
1778657096.482639,599616058114458446,876,-416
1778657096.490331,599616058122150753,876,-416
1778657096.498023,599616058129843060,876,-396
1778657096.505716,599616058137535367,876,-382
1778657096.513408,599616058145227674,876,-379
1778657096.521100,599616058152919981,876,-377
1778657096.528792,599616058160612288,876,-372
1778657096.536485,599616058168304595,876,-379
1778657096.544177,599616058175996902,876,-360
1778657096.551869,599616058183689209,876,-339
1778657096.559562,599616058191381516,876,-358
1778657096.567254,599616058199073823,876,-343
1778657096.574946,599616058206766130,876,-303
1778657096.582639,599616058214458437,876,-281
1778657096.590331,599616058222150744,876,-269
1778657096.598023,599616058229843051,876,-257
1778657096.605716,599616058237535358,876,-216
1778657096.591828,599616058244996654,949,-182
1778657096.599520,599616058252688961,949,-192
1778657096.607213,599616058260381268,949,-173
1778657096.614905,599616058268073575,949,-153
1778657096.622597,599616058275765882,949,-177
1778657096.630289,599616058283458189,949,-194
1778657096.637982,599616058291150496,949,-192
1778657096.645674,599616058298842803,949,-235
1778657096.653366,599616058306535110,949,-331
1778657096.661059,599616058314227417,949,-384
1778657096.668751,599616058321919724,949,-396
1778657096.676443,599616058329612031,949,-454
1778657096.684135,599616058337304338,949,-492
1778657096.691828,599616058344996645,949,-492
1778657096.699520,599616058352688952,949,-519
1778657096.707212,599616058360381259,949,-531
1778657096.714905,599616058368073566,949,-519
1778657096.722597,599616058375765873,949,-505
1778657096.730289,599616058383458180,949,-488
1778657096.737982,599616058391150487,949,-512
1778657096.745674,599616058398842794,949,-536
1778657096.753366,599616058406535101,949,-505
1778657096.761059,599616058414227408,949,-466
1778657096.768751,599616058421919715,949,-473
1778657096.776443,599616058429612022,949,-502
1778657096.784136,599616058437304329,949,-483
1778657096.791828,599616058444996636,949,-456
1778657096.799520,599616058452688943,949,-478
1778657096.807212,599616058460381250,949,-476
1778657096.814905,599616058468073557,949,-459
1778657096.822597,599616058475765864,949,-464
1778657096.830289,599616058483458171,949,-464
1778657096.837982,599616058491150478,949,-471
1778657096.845674,599616058498842785,949,-464
1778657096.853366,599616058506535092,949,-440
1778657096.861059,599616058514227399,949,-444
1778657096.868751,599616058521919706,949,-442
1778657096.876443,599616058529612013,949,-430
1778657096.884135,599616058537304320,949,-435
1778657096.891828,599616058544996627,949,-452
1778657096.899520,599616058552688934,949,-456
1778657096.907212,599616058560381241,949,-444
1778657096.914905,599616058568073548,949,-449
1778657096.922597,599616058575765855,949,-449
1778657096.930289,599616058583458162,949,-437
1778657096.937982,599616058591150469,949,-447
1778657096.945674,599616058598842776,949,-442
1778657096.953366,599616058606535083,949,-442
1778657096.961059,599616058614227390,949,-435
1778657096.968751,599616058621919697,949,-281
1778657096.976443,599616058629612004,949,55
1778657096.984136,599616058637304311,949,379
1778657096.991828,599616058644996618,949,211
1778657096.999520,599616058652688925,949,-517
1778657097.007212,599616058660381232,949,-961
1778657097.014905,599616058668073539,949,-767
1778657097.022597,599616058675765846,949,-512
1778657097.030289,599616058683458153,949,-483
1778657097.037982,599616058691150460,949,-483
1778657097.045674,599616058698842767,949,-447
1778657097.053366,599616058706535074,949,-449
1778657097.061059,599616058714227381,949,-452
1778657097.068751,599616058721919688,949,-423
1778657097.076443,599616058729611995,949,-428
1778657097.084136,599616058737304302,949,-430
1778657097.091828,599616058744996609,949,-408
1778657097.099520,599616058752688916,949,-404
1778657097.107213,599616058760381223,949,-401
1778657097.114905,599616058768073530,949,-406
1778657097.122597,599616058775765837,949,-406
1778657097.130289,599616058783458144,949,-394
1778657097.137982,599616058791150451,949,-396
1778657097.145674,599616058798842758,949,-370
1778657097.132007,599616058806293884,1022,-343
1778657097.139699,599616058813986191,1022,-358
1778657097.147391,599616058821678498,1022,-353
1778657097.155083,599616058829370805,1022,-336
1778657097.162776,599616058837063112,1022,-310
1778657097.170468,599616058844755419,1022,-271
1778657097.178160,599616058852447726,1022,-269
1778657097.185853,599616058860140033,1022,-257
1778657097.193545,599616058867832340,1022,-216
1778657097.201237,599616058875524647,1022,-189
1778657097.208930,599616058883216954,1022,-192
1778657097.216622,599616058890909261,1022,-199
1778657097.224314,599616058898601568,1022,-189
1778657097.232007,599616058906293875,1022,-194
1778657097.239699,599616058913986182,1022,-230
1778657097.247391,599616058921678489,1022,-254
1778657097.255084,599616058929370796,1022,-305
1778657097.262776,599616058937063103,1022,-387
1778657097.270468,599616058944755410,1022,-432
1778657097.278161,599616058952447717,1022,-452
1778657097.285853,599616058960140024,1022,-478
1778657097.293545,599616058967832331,1022,-509
1778657097.301237,599616058975524638,1022,-526
1778657097.308930,599616058983216945,1022,-531
1778657097.316622,599616058990909252,1022,-517
1778657097.324314,599616058998601559,1022,-495
1778657097.332007,599616059006293866,1022,-514
1778657097.339699,599616059013986173,1022,-526
1778657097.347391,599616059021678480,1022,-490
1778657097.355083,599616059029370787,1022,-478
1778657097.362776,599616059037063094,1022,-490
1778657097.370468,599616059044755401,1022,-490
1778657097.378160,599616059052447708,1022,-480
1778657097.385853,599616059060140015,1022,-466
1778657097.393545,599616059067832322,1022,-473
1778657097.401237,599616059075524629,1022,-473
1778657097.408930,599616059083216936,1022,-447
1778657097.416622,599616059090909243,1022,-456
1778657097.424314,599616059098601550,1022,-488
1778657097.432007,599616059106293857,1022,-483
1778657097.439699,599616059113986164,1022,-454
1778657097.447391,599616059121678471,1022,-437
1778657097.455084,599616059129370778,1022,-442
1778657097.462776,599616059137063085,1022,-432
1778657097.470468,599616059144755392,1022,-416
1778657097.478160,599616059152447699,1022,-425
1778657097.485853,599616059160140006,1022,-432
1778657097.493545,599616059167832313,1022,-440
1778657097.501237,599616059175524620,1022,-449
1778657097.508930,599616059183216927,1022,-442
1778657097.516622,599616059190909234,1022,-437
1778657097.524314,599616059198601541,1022,-430
1778657097.532007,599616059206293848,1022,-428
1778657097.539699,599616059213986155,1022,-432
1778657097.547391,599616059221678462,1022,-425
1778657097.555084,599616059229370769,1022,-382
1778657097.562776,599616059237063076,1022,-199
1778657097.570468,599616059244755383,1022,168
1778657097.578161,599616059252447690,1022,423
1778657097.585853,599616059260139997,1022,88
1778657097.593545,599616059267832304,1022,-634
1778657097.601237,599616059275524611,1022,-894
1778657097.608930,599616059283216918,1022,-620
1778657097.616622,599616059290909225,1022,-459
1778657097.624314,599616059298601532,1022,-473
1778657097.632007,599616059306293839,1022,-437
1778657097.639699,599616059313986146,1022,-404
1778657097.647391,599616059321678453,1022,-408
1778657097.655083,599616059329370760,1022,-401
1778657097.662776,599616059337063067,1022,-379
1778657097.670468,599616059344755374,1022,-396
1778657097.678160,599616059352447681,1022,-420
1778657097.685853,599616059360139988,1022,-389
1778657097.680527,599616059367611458,1095,-372
1778657097.688220,599616059375303765,1095,-384
1778657097.695912,599616059382996072,1095,-363
1778657097.703604,599616059390688379,1095,-353
1778657097.711296,599616059398380686,1095,-355
1778657097.718989,599616059406072993,1095,-348
1778657097.726681,599616059413765300,1095,-341
1778657097.734373,599616059421457607,1095,-322
1778657097.742066,599616059429149914,1095,-319
1778657097.749758,599616059436842221,1095,-315
1778657097.757450,599616059444534528,1095,-288
1778657097.765143,599616059452226835,1095,-278
1778657097.772835,599616059459919142,1095,-262
1778657097.780527,599616059467611449,1095,-242
1778657097.788219,599616059475303756,1095,-230
1778657097.795912,599616059482996063,1095,-192
1778657097.803604,599616059490688370,1095,-173
1778657097.811296,599616059498380677,1095,-168
1778657097.818989,599616059506072984,1095,-158
1778657097.826681,599616059513765291,1095,-177
1778657097.834373,599616059521457598,1095,-199
1778657097.842066,599616059529149905,1095,-226
1778657097.849758,599616059536842212,1095,-266
1778657097.857450,599616059544534519,1095,-319
1778657097.865143,599616059552226826,1095,-370
1778657097.872835,599616059559919133,1095,-401
1778657097.880527,599616059567611440,1095,-428
1778657097.888220,599616059575303747,1095,-456
1778657097.895912,599616059582996054,1095,-461
1778657097.903604,599616059590688361,1095,-468
1778657097.911296,599616059598380668,1095,-471
1778657097.918989,599616059606072975,1095,-466
1778657097.926681,599616059613765282,1095,-473
1778657097.934373,599616059621457589,1095,-464
1778657097.942066,599616059629149896,1095,-452
1778657097.949758,599616059636842203,1095,-452
1778657097.957450,599616059644534510,1095,-447
1778657097.965142,599616059652226817,1095,-447
1778657097.972835,599616059659919124,1095,-449
1778657097.980527,599616059667611431,1095,-452
1778657097.988219,599616059675303738,1095,-447
1778657097.995912,599616059682996045,1095,-432
1778657098.003604,599616059690688352,1095,-442
1778657098.011297,599616059698380659,1095,-440
1778657098.018989,599616059706072966,1095,-425
1778657098.026681,599616059713765273,1095,-432
1778657098.034373,599616059721457580,1095,-430
1778657098.042066,599616059729149887,1095,-428
1778657098.049758,599616059736842194,1095,-432
1778657098.057450,599616059744534501,1095,-418
1778657098.065143,599616059752226808,1095,-396
1778657098.072835,599616059759919115,1095,-382
1778657098.080527,599616059767611422,1095,-401
1778657098.088219,599616059775303729,1095,-420
1778657098.095912,599616059782996036,1095,-404
1778657098.103604,599616059790688343,1095,-408
1778657098.111296,599616059798380650,1095,-416
1778657098.118989,599616059806072957,1095,-406
1778657098.126681,599616059813765264,1095,-406
1778657098.134373,599616059821457571,1095,-396
1778657098.142066,599616059829149878,1095,-391
1778657098.149758,599616059836842185,1095,-401
1778657098.157450,599616059844534492,1095,-406
1778657098.165143,599616059852226799,1095,-384
1778657098.172835,599616059859919106,1095,-242
1778657098.180527,599616059867611413,1095,76
1778657098.188220,599616059875303720,1095,382
1778657098.195912,599616059882996027,1095,252
1778657098.203604,599616059890688334,1095,-355
1778657098.211296,599616059898380641,1095,-733
1778657098.218989,599616059906072948,1095,-577
1778657098.226681,599616059913765255,1095,-406
1778657098.234373,599616059921457562,1095,-437
1778657098.258038,599616059928903597,1168,-459
1778657098.265731,599616059936595904,1168,-418
1778657098.273423,599616059944288211,1168,-401
1778657098.281115,599616059951980518,1168,-408
1778657098.288807,599616059959672825,1168,-394
1778657098.296500,599616059967365132,1168,-389
1778657098.304192,599616059975057439,1168,-394
1778657098.311884,599616059982749746,1168,-372
1778657098.319577,599616059990442053,1168,-363
1778657098.327269,599616059998134360,1168,-365
1778657098.334961,599616060005826667,1168,-358
1778657098.342654,599616060013518974,1168,-355
1778657098.350346,599616060021211281,1168,-343
1778657098.358038,599616060028903588,1168,-339
1778657098.365731,599616060036595895,1168,-336
1778657098.373423,599616060044288202,1168,-319
1778657098.381115,599616060051980509,1168,-312
1778657098.388808,599616060059672816,1168,-303
1778657098.396500,599616060067365123,1168,-278
1778657098.404192,599616060075057430,1168,-264
1778657098.411884,599616060082749737,1168,-250
1778657098.419577,599616060090442044,1168,-240
1778657098.427269,599616060098134351,1168,-221
1778657098.434961,599616060105826658,1168,-189
1778657098.442654,599616060113518965,1168,-177
1778657098.450346,599616060121211272,1168,-165
1778657098.458038,599616060128903579,1168,-156
1778657098.465731,599616060136595886,1168,-163
1778657098.473423,599616060144288193,1168,-175
1778657098.481115,599616060151980500,1168,-199
1778657098.488807,599616060159672807,1168,-230
1778657098.496500,599616060167365114,1168,-271
1778657098.504192,599616060175057421,1168,-319
1778657098.511884,599616060182749728,1168,-355
1778657098.519577,599616060190442035,1168,-404
1778657098.527269,599616060198134342,1168,-440
1778657098.534961,599616060205826649,1168,-444
1778657098.542654,599616060213518956,1168,-454
1778657098.550346,599616060221211263,1168,-437
1778657098.558038,599616060228903570,1168,-425
1778657098.565731,599616060236595877,1168,-442
1778657098.573423,599616060244288184,1168,-435
1778657098.581115,599616060251980491,1168,-420
1778657098.588808,599616060259672798,1168,-420
1778657098.596500,599616060267365105,1168,-420
1778657098.604192,599616060275057412,1168,-425
1778657098.611884,599616060282749719,1168,-425
1778657098.619577,599616060290442026,1168,-420
1778657098.627269,599616060298134333,1168,-418
1778657098.634961,599616060305826640,1168,-420
1778657098.642654,599616060313518947,1168,-428
1778657098.650346,599616060321211254,1168,-423
1778657098.658038,599616060328903561,1168,-411
1778657098.665730,599616060336595868,1168,-404
1778657098.673423,599616060344288175,1168,-394
1778657098.681115,599616060351980482,1168,-406
1778657098.688807,599616060359672789,1168,-413
1778657098.696500,599616060367365096,1168,-406
1778657098.704192,599616060375057403,1168,-396
1778657098.711884,599616060382749710,1168,-387
1778657098.719577,599616060390442017,1168,-389
1778657098.727269,599616060398134324,1168,-382
1778657098.734961,599616060405826631,1168,-375
1778657098.742654,599616060413518938,1168,-389
1778657098.750346,599616060421211245,1168,-387
1778657098.758038,599616060428903552,1168,-379
1778657098.765731,599616060436595859,1168,-384
1778657098.773423,599616060444288166,1168,-379
1778657098.781115,599616060451980473,1168,-375
1778657098.788807,599616060459672780,1168,-375
1778657098.796500,599616060467365087,1168,-382
1778657098.804192,599616060475057394,1168,-379
1778657098.811884,599616060482749701,1168,-360
1778657098.798457,599616060490216088,1241,-365
1778657098.806149,599616060497908395,1241,-379
1778657098.813842,599616060505600702,1241,-367
1778657098.821534,599616060513293009,1241,-358
1778657098.829226,599616060520985316,1241,-363
1778657098.836918,599616060528677623,1241,-367
1778657098.844611,599616060536369930,1241,-367
1778657098.852303,599616060544062237,1241,-363
1778657098.859995,599616060551754544,1241,-370
1778657098.867688,599616060559446851,1241,-372
1778657098.875380,599616060567139158,1241,-365
1778657098.883072,599616060574831465,1241,-363
1778657098.890764,599616060582523772,1241,-363
1778657098.898457,599616060590216079,1241,-372
1778657098.906149,599616060597908386,1241,-358
1778657098.913841,599616060605600693,1241,-343
1778657098.921534,599616060613293000,1241,-360
1778657098.929226,599616060620985307,1241,-363
1778657098.936918,599616060628677614,1241,-355
1778657098.944611,599616060636369921,1241,-355
1778657098.952303,599616060644062228,1241,-346
1778657098.959995,599616060651754535,1241,-363
1778657098.967688,599616060659446842,1241,-375
1778657098.975380,599616060667139149,1241,-353
1778657098.983072,599616060674831456,1241,-339
1778657098.990765,599616060682523763,1241,-346
1778657098.998457,599616060690216070,1241,-358
1778657099.006149,599616060697908377,1241,-351
1778657099.013841,599616060705600684,1241,-343
1778657099.021534,599616060713292991,1241,-353
1778657099.029226,599616060720985298,1241,-348
1778657099.036918,599616060728677605,1241,-343
1778657099.044611,599616060736369912,1241,-348
1778657099.052303,599616060744062219,1241,-346
1778657099.059995,599616060751754526,1241,-346
1778657099.067688,599616060759446833,1241,-346
1778657099.075380,599616060767139140,1241,-348
1778657099.083072,599616060774831447,1241,-358
1778657099.090765,599616060782523754,1241,-348
1778657099.098457,599616060790216061,1241,-341
1778657099.106149,599616060797908368,1241,-343
1778657099.113842,599616060805600675,1241,-343
1778657099.121534,599616060813292982,1241,-343
1778657099.129226,599616060820985289,1241,-343
1778657099.136918,599616060828677596,1241,-341
1778657099.144611,599616060836369903,1241,-334
1778657099.152303,599616060844062210,1241,-329
1778657099.159995,599616060851754517,1241,-341
1778657099.167688,599616060859446824,1241,-351
1778657099.175380,599616060867139131,1241,-351
1778657099.183072,599616060874831438,1241,-353
1778657099.190765,599616060882523745,1241,-334
1778657099.198457,599616060890216052,1241,-315
1778657099.206149,599616060897908359,1241,-310
1778657099.213841,599616060905600666,1241,-317
1778657099.221534,599616060913292973,1241,-327
1778657099.229226,599616060920985280,1241,-327
1778657099.236918,599616060928677587,1241,-329
1778657099.244611,599616060936369894,1241,-343
1778657099.252303,599616060944062201,1241,-343
1778657099.259995,599616060951754508,1241,-341
1778657099.267688,599616060959446815,1241,-343
1778657099.275380,599616060967139122,1241,-339
1778657099.283072,599616060974831429,1241,-331
1778657099.290765,599616060982523736,1241,-331
1778657099.298457,599616060990216043,1241,-353
1778657099.306149,599616060997908350,1241,-351
1778657099.313842,599616061005600657,1241,-254
1778657099.321534,599616061013292964,1241,-28
1778657099.329226,599616061020985271,1241,295
1778657099.336918,599616061028677578,1241,387
1778657099.344611,599616061036369885,1241,-28
1778657099.352303,599616061044062192,1241,-526
1778657099.382368,599616061051533662,1314,-586
1778657099.390060,599616061059225969,1314,-411
1778657099.397753,599616061066918276,1314,-377
1778657099.405445,599616061074610583,1314,-423
1778657099.413137,599616061082302890,1314,-399
1778657099.420830,599616061089995197,1314,-370
1778657099.428522,599616061097687504,1314,-370
1778657099.436214,599616061105379811,1314,-363
1778657099.443907,599616061113072118,1314,-358
1778657099.451599,599616061120764425,1314,-353
1778657099.459291,599616061128456732,1314,-346
1778657099.466984,599616061136149039,1314,-353
1778657099.474676,599616061143841346,1314,-353
1778657099.482368,599616061151533653,1314,-339
1778657099.490060,599616061159225960,1314,-322
1778657099.497753,599616061166918267,1314,-319
1778657099.505445,599616061174610574,1314,-329
1778657099.513137,599616061182302881,1314,-319
1778657099.520830,599616061189995188,1314,-307
1778657099.528522,599616061197687495,1314,-300
1778657099.536214,599616061205379802,1314,-288
1778657099.543906,599616061213072109,1314,-286
1778657099.551599,599616061220764416,1314,-281
1778657099.559291,599616061228456723,1314,-266
1778657099.566983,599616061236149030,1314,-254
1778657099.574676,599616061243841337,1314,-245
1778657099.582368,599616061251533644,1314,-240
1778657099.590060,599616061259225951,1314,-226
1778657099.597753,599616061266918258,1314,-197
1778657099.605445,599616061274610565,1314,-180
1778657099.613137,599616061282302872,1314,-170
1778657099.620830,599616061289995179,1314,-168
1778657099.628522,599616061297687486,1314,-175
1778657099.636214,599616061305379793,1314,-173
1778657099.643907,599616061313072100,1314,-177
1778657099.651599,599616061320764407,1314,-192
1778657099.659291,599616061328456714,1314,-223
1778657099.666983,599616061336149021,1314,-259
1778657099.674676,599616061343841328,1314,-283
1778657099.682368,599616061351533635,1314,-317
1778657099.690060,599616061359225942,1314,-343
1778657099.697753,599616061366918249,1314,-355
1778657099.705445,599616061374610556,1314,-379
1778657099.713137,599616061382302863,1314,-382
1778657099.720829,599616061389995170,1314,-379
1778657099.728522,599616061397687477,1314,-384
1778657099.736214,599616061405379784,1314,-387
1778657099.743906,599616061413072091,1314,-399
1778657099.751599,599616061420764398,1314,-401
1778657099.759291,599616061428456705,1314,-387
1778657099.766984,599616061436149012,1314,-389
1778657099.774676,599616061443841319,1314,-389
1778657099.782368,599616061451533626,1314,-387
1778657099.790060,599616061459225933,1314,-384
1778657099.797753,599616061466918240,1314,-387
1778657099.805445,599616061474610547,1314,-389
1778657099.813137,599616061482302854,1314,-372
1778657099.820830,599616061489995161,1314,-375
1778657099.828522,599616061497687468,1314,-387
1778657099.836214,599616061505379775,1314,-375
1778657099.843906,599616061513072082,1314,-382
1778657099.851599,599616061520764389,1314,-391
1778657099.859291,599616061528456696,1314,-382
1778657099.866983,599616061536149003,1314,-377
1778657099.874676,599616061543841310,1314,-367
1778657099.882368,599616061551533617,1314,-365
1778657099.890060,599616061559225924,1314,-370
1778657099.897753,599616061566918231,1314,-363
1778657099.905445,599616061574610538,1314,-358
1778657099.913137,599616061582302845,1314,-363
1778657099.920830,599616061589995152,1314,-377
1778657099.928522,599616061597687459,1314,-372
1778657099.936214,599616061605379766,1314,-353
1778657099.974792,599616061612820718,1387,-365
1778657099.982485,599616061620513025,1387,-358
1778657099.990177,599616061628205332,1387,-346
1778657099.997869,599616061635897639,1387,-360
1778657100.005562,599616061643589946,1387,-353
1778657100.013254,599616061651282253,1387,-351
1778657100.020946,599616061658974560,1387,-358
1778657100.028639,599616061666666867,1387,-351
1778657100.036331,599616061674359174,1387,-353
1778657100.044023,599616061682051481,1387,-353
1778657100.051716,599616061689743788,1387,-346
1778657100.059408,599616061697436095,1387,-346
1778657100.067100,599616061705128402,1387,-348
1778657100.074792,599616061712820709,1387,-363
1778657100.082485,599616061720513016,1387,-360
1778657100.090177,599616061728205323,1387,-351
1778657100.097869,599616061735897630,1387,-351
1778657100.105562,599616061743589937,1387,-336
1778657100.113254,599616061751282244,1387,-339
1778657100.120946,599616061758974551,1387,-348
1778657100.128639,599616061766666858,1387,-336
1778657100.136331,599616061774359165,1387,-341
1778657100.144023,599616061782051472,1387,-334
1778657100.151716,599616061789743779,1387,-331
1778657100.159408,599616061797436086,1387,-346
1778657100.167100,599616061805128393,1387,-343
1778657100.174793,599616061812820700,1387,-339
1778657100.182485,599616061820513007,1387,-327
1778657100.190177,599616061828205314,1387,-319
1778657100.197869,599616061835897621,1387,-334
1778657100.205562,599616061843589928,1387,-339
1778657100.213254,599616061851282235,1387,-339
1778657100.220946,599616061858974542,1387,-341
1778657100.228639,599616061866666849,1387,-341
1778657100.236331,599616061874359156,1387,-336
1778657100.244023,599616061882051463,1387,-305
1778657100.251715,599616061889743770,1387,-298
1778657100.259408,599616061897436077,1387,-317
1778657100.267100,599616061905128384,1387,-312
1778657100.274792,599616061912820691,1387,-307
1778657100.282485,599616061920512998,1387,-319
1778657100.290177,599616061928205305,1387,-324
1778657100.297869,599616061935897612,1387,-329
1778657100.305562,599616061943589919,1387,-329
1778657100.313254,599616061951282226,1387,-336
1778657100.320946,599616061958974533,1387,-327
1778657100.328639,599616061966666840,1387,-315
1778657100.336331,599616061974359147,1387,-324
1778657100.344023,599616061982051454,1387,-324
1778657100.351716,599616061989743761,1387,-331
1778657100.359408,599616061997436068,1387,-339
1778657100.367100,599616062005128375,1387,-257
1778657100.374792,599616062012820682,1387,-40
1778657100.382485,599616062020512989,1387,283
1778657100.390177,599616062028205296,1387,370
1778657100.397869,599616062035897603,1387,-67
1778657100.405562,599616062043589910,1387,-553
1778657100.413254,599616062051282217,1387,-584
1778657100.420946,599616062058974524,1387,-413
1778657100.428639,599616062066666831,1387,-367
1778657100.436331,599616062074359138,1387,-384
1778657100.444023,599616062082051445,1387,-358
1778657100.451715,599616062089743752,1387,-351
1778657100.459408,599616062097436059,1387,-363
1778657100.467100,599616062105128366,1387,-348
1778657100.474792,599616062112820673,1387,-339
1778657100.482485,599616062120512980,1387,-339
1778657100.490177,599616062128205287,1387,-336
1778657100.497869,599616062135897594,1387,-327
1778657100.505562,599616062143589901,1387,-315
1778657100.513254,599616062151282208,1387,-324
1778657100.520946,599616062158974515,1387,-324
1778657100.528639,599616062166666822,1387,-300
1778657100.508039,599616062174138292,1460,-298
1778657100.515731,599616062181830599,1460,-298
1778657100.523423,599616062189522906,1460,-290
1778657100.531115,599616062197215213,1460,-288
1778657100.538808,599616062204907520,1460,-278
1778657100.546500,599616062212599827,1460,-276
1778657100.554192,599616062220292134,1460,-269
1778657100.561885,599616062227984441,1460,-250
1778657100.569577,599616062235676748,1460,-242
1778657100.577269,599616062243369055,1460,-218
1778657100.584962,599616062251061362,1460,-194
1778657100.592654,599616062258753669,1460,-192
1778657100.600346,599616062266445976,1460,-189
1778657100.608038,599616062274138283,1460,-182
1778657100.615731,599616062281830590,1460,-163
1778657100.623423,599616062289522897,1460,-156
1778657100.631115,599616062297215204,1460,-168
1778657100.638808,599616062304907511,1460,-177
1778657100.646500,599616062312599818,1460,-202
1778657100.654192,599616062320292125,1460,-226
1778657100.661885,599616062327984432,1460,-257
1778657100.669577,599616062335676739,1460,-305
1778657100.677269,599616062343369046,1460,-334
1778657100.684962,599616062351061353,1460,-355
1778657100.692654,599616062358753660,1460,-377
1778657100.700346,599616062366445967,1460,-394
1778657100.708039,599616062374138274,1460,-413
1778657100.715731,599616062381830581,1460,-404
1778657100.723423,599616062389522888,1460,-394
1778657100.731115,599616062397215195,1460,-416
1778657100.738808,599616062404907502,1460,-418
1778657100.746500,599616062412599809,1460,-408
1778657100.754192,599616062420292116,1460,-401
1778657100.761885,599616062427984423,1460,-389
1778657100.769577,599616062435676730,1460,-384
1778657100.777269,599616062443369037,1460,-379
1778657100.784961,599616062451061344,1460,-382
1778657100.792654,599616062458753651,1460,-384
1778657100.800346,599616062466445958,1460,-377
1778657100.808038,599616062474138265,1460,-382
1778657100.815731,599616062481830572,1460,-379
1778657100.823423,599616062489522879,1460,-375
1778657100.831115,599616062497215186,1460,-372
1778657100.838808,599616062504907493,1460,-360
1778657100.846500,599616062512599800,1460,-367
1778657100.854192,599616062520292107,1460,-367
1778657100.861885,599616062527984414,1460,-358
1778657100.869577,599616062535676721,1460,-370
1778657100.877269,599616062543369028,1460,-367
1778657100.884962,599616062551061335,1460,-353
1778657100.892654,599616062558753642,1460,-353
1778657100.900346,599616062566445949,1460,-358
1778657100.908038,599616062574138256,1460,-355
1778657100.915731,599616062581830563,1460,-341
1778657100.923423,599616062589522870,1460,-346
1778657100.931115,599616062597215177,1460,-353
1778657100.938808,599616062604907484,1460,-341
1778657100.946500,599616062612599791,1460,-341
1778657100.954192,599616062620292098,1460,-341
1778657100.961885,599616062627984405,1460,-336
1778657100.969577,599616062635676712,1460,-341
1778657100.977269,599616062643369019,1460,-336
1778657100.984962,599616062651061326,1460,-341
1778657100.992654,599616062658753633,1460,-358
1778657101.000346,599616062666445940,1460,-351
1778657101.008039,599616062674138247,1460,-334
1778657101.015731,599616062681830554,1460,-315
1778657101.023423,599616062689522861,1460,-315
1778657101.031115,599616062697215168,1460,-329
1778657101.038808,599616062704907475,1460,-322
1778657101.046500,599616062712599782,1460,-329
1778657101.054192,599616062720292089,1460,-341
1778657101.061885,599616062727984396,1460,-334
1778657101.053857,599616062735455866,1533,-339
1778657101.061549,599616062743148173,1533,-351
1778657101.069242,599616062750840480,1533,-353
1778657101.076934,599616062758532787,1533,-336
1778657101.084626,599616062766225094,1533,-322
1778657101.092318,599616062773917401,1533,-341
1778657101.100011,599616062781609708,1533,-343
1778657101.107703,599616062789302015,1533,-288
1778657101.115395,599616062796994322,1533,-141
1778657101.123088,599616062804686629,1533,139
1778657101.130780,599616062812378936,1533,331
1778657101.138472,599616062820071243,1533,52
1778657101.146164,599616062827763550,1533,-497
1778657101.153857,599616062835455857,1533,-668
1778657101.161549,599616062843148164,1533,-464
1778657101.169241,599616062850840471,1533,-363
1778657101.176934,599616062858532778,1533,-387
1778657101.184626,599616062866225085,1533,-358
1778657101.192318,599616062873917392,1533,-341
1778657101.200011,599616062881609699,1533,-355
1778657101.207703,599616062889302006,1533,-351
1778657101.215395,599616062896994313,1533,-341
1778657101.223088,599616062904686620,1533,-334
1778657101.230780,599616062912378927,1533,-336
1778657101.238472,599616062920071234,1533,-329
1778657101.246165,599616062927763541,1533,-317
1778657101.253857,599616062935455848,1533,-319
1778657101.261549,599616062943148155,1533,-307
1778657101.269241,599616062950840462,1533,-298
1778657101.276934,599616062958532769,1533,-307
1778657101.284626,599616062966225076,1533,-300
1778657101.292318,599616062973917383,1533,-283
1778657101.300011,599616062981609690,1533,-276
1778657101.307703,599616062989301997,1533,-269
1778657101.315395,599616062996994304,1533,-257
1778657101.323088,599616063004686611,1533,-247
1778657101.330780,599616063012378918,1533,-242
1778657101.338472,599616063020071225,1533,-223
1778657101.346164,599616063027763532,1533,-204
1778657101.353857,599616063035455839,1533,-197
1778657101.361549,599616063043148146,1533,-168
1778657101.369241,599616063050840453,1533,-149
1778657101.376934,599616063058532760,1533,-149
1778657101.384626,599616063066225067,1533,-137
1778657101.392318,599616063073917374,1533,-134
1778657101.400011,599616063081609681,1533,-139
1778657101.407703,599616063089301988,1533,-151
1778657101.415395,599616063096994295,1533,-194
1778657101.423088,599616063104686602,1533,-233
1778657101.430780,599616063112378909,1533,-264
1778657101.438472,599616063120071216,1533,-305
1778657101.446165,599616063127763523,1533,-346
1778657101.453857,599616063135455830,1533,-379
1778657101.461549,599616063143148137,1533,-389
1778657101.469241,599616063150840444,1533,-394
1778657101.476934,599616063158532751,1533,-411
1778657101.484626,599616063166225058,1533,-406
1778657101.492318,599616063173917365,1533,-406
1778657101.500011,599616063181609672,1533,-413
1778657101.507703,599616063189301979,1533,-406
1778657101.515395,599616063196994286,1533,-406
1778657101.523088,599616063204686593,1533,-399
1778657101.530780,599616063212378900,1533,-391
1778657101.538472,599616063220071207,1533,-389
1778657101.546165,599616063227763514,1533,-389
1778657101.553857,599616063235455821,1533,-391
1778657101.561549,599616063243148128,1533,-382
1778657101.569242,599616063250840435,1533,-377
1778657101.576934,599616063258532742,1533,-375
1778657101.584626,599616063266225049,1533,-360
1778657101.592318,599616063273917356,1533,-370
1778657101.600011,599616063281609663,1533,-375
1778657101.607703,599616063289301970,1533,-360
1778657101.632403,599616063296748005,1606,-365
1778657101.640095,599616063304440312,1606,-363
1778657101.647788,599616063312132619,1606,-355
1778657101.655480,599616063319824926,1606,-358
1778657101.663172,599616063327517233,1606,-353
1778657101.670865,599616063335209540,1606,-353
1778657101.678557,599616063342901847,1606,-355
1778657101.686249,599616063350594154,1606,-365
1778657101.693942,599616063358286461,1606,-363
1778657101.701634,599616063365978768,1606,-343
1778657101.709326,599616063373671075,1606,-341
1778657101.717019,599616063381363382,1606,-343
1778657101.724711,599616063389055689,1606,-343
1778657101.732403,599616063396747996,1606,-346
1778657101.740095,599616063404440303,1606,-334
1778657101.747788,599616063412132610,1606,-339
1778657101.755480,599616063419824917,1606,-341
1778657101.763172,599616063427517224,1606,-329
1778657101.770865,599616063435209531,1606,-339
1778657101.778557,599616063442901838,1606,-339
1778657101.786249,599616063450594145,1606,-327
1778657101.793941,599616063458286452,1606,-331
1778657101.801634,599616063465978759,1606,-327
1778657101.809326,599616063473671066,1606,-327
1778657101.817019,599616063481363373,1606,-327
1778657101.824711,599616063489055680,1606,-327
1778657101.832403,599616063496747987,1606,-331
1778657101.840096,599616063504440294,1606,-315
1778657101.847788,599616063512132601,1606,-315
1778657101.855480,599616063519824908,1606,-331
1778657101.863172,599616063527517215,1606,-334
1778657101.870865,599616063535209522,1606,-329
1778657101.878557,599616063542901829,1606,-307
1778657101.886249,599616063550594136,1606,-295
1778657101.893942,599616063558286443,1606,-298
1778657101.901634,599616063565978750,1606,-300
1778657101.909326,599616063573671057,1606,-310
1778657101.917018,599616063581363364,1606,-310
1778657101.924711,599616063589055671,1606,-312
1778657101.932403,599616063596747978,1606,-327
1778657101.940095,599616063604440285,1606,-315
1778657101.947788,599616063612132592,1606,-310
1778657101.955480,599616063619824899,1606,-322
1778657101.963172,599616063627517206,1606,-312
1778657101.970865,599616063635209513,1606,-319
1778657101.978557,599616063642901820,1606,-319
1778657101.986249,599616063650594127,1606,-317
1778657101.993942,599616063658286434,1606,-327
1778657102.001634,599616063665978741,1606,-281
1778657102.009326,599616063673671048,1606,-110
1778657102.017019,599616063681363355,1606,189
1778657102.024711,599616063689055662,1606,365
1778657102.032403,599616063696747969,1606,48
1778657102.040095,599616063704440276,1606,-483
1778657102.047788,599616063712132583,1606,-620
1778657102.055480,599616063719824890,1606,-437
1778657102.063172,599616063727517197,1606,-351
1778657102.070865,599616063735209504,1606,-379
1778657102.078557,599616063742901811,1606,-363
1778657102.086249,599616063750594118,1606,-336
1778657102.093941,599616063758286425,1606,-343
1778657102.101634,599616063765978732,1606,-329
1778657102.109326,599616063773671039,1606,-317
1778657102.117018,599616063781363346,1606,-319
1778657102.124711,599616063789055653,1606,-315
1778657102.132403,599616063796747960,1606,-315
1778657102.140095,599616063804440267,1606,-305
1778657102.147788,599616063812132574,1606,-305
1778657102.155480,599616063819824881,1606,-305
1778657102.163172,599616063827517188,1606,-288
1778657102.170865,599616063835209495,1606,-288
1778657102.178557,599616063842901802,1606,-286
1778657102.186249,599616063850594109,1606,-274
1778657102.172014,599616063858060496,1679,-269
1778657102.179707,599616063865752803,1679,-259
1778657102.187399,599616063873445110,1679,-254
1778657102.195091,599616063881137417,1679,-252
1778657102.202784,599616063888829724,1679,-238
1778657102.210476,599616063896522031,1679,-223
1778657102.218168,599616063904214338,1679,-204
1778657102.225861,599616063911906645,1679,-187
1778657102.233553,599616063919598952,1679,-177
1778657102.241245,599616063927291259,1679,-168
1778657102.248938,599616063934983566,1679,-165
1778657102.256630,599616063942675873,1679,-146
1778657102.264322,599616063950368180,1679,-134
1778657102.272014,599616063958060487,1679,-151
1778657102.279707,599616063965752794,1679,-163
1778657102.287399,599616063973445101,1679,-180
1778657102.295091,599616063981137408,1679,-214
1778657102.302784,599616063988829715,1679,-250
1778657102.310476,599616063996522022,1679,-293
1778657102.318168,599616064004214329,1679,-315
1778657102.325861,599616064011906636,1679,-336
1778657102.333553,599616064019598943,1679,-365
1778657102.341245,599616064027291250,1679,-375
1778657102.348938,599616064034983557,1679,-384
1778657102.356630,599616064042675864,1679,-399
1778657102.364322,599616064050368171,1679,-404
1778657102.372015,599616064058060478,1679,-396
1778657102.379707,599616064065752785,1679,-387
1778657102.387399,599616064073445092,1679,-387
1778657102.395091,599616064081137399,1679,-384
1778657102.402784,599616064088829706,1679,-377
1778657102.410476,599616064096522013,1679,-377
1778657102.418168,599616064104214320,1679,-367
1778657102.425861,599616064111906627,1679,-365
1778657102.433553,599616064119598934,1679,-367
1778657102.441245,599616064127291241,1679,-360
1778657102.448937,599616064134983548,1679,-370
1778657102.456630,599616064142675855,1679,-365
1778657102.464322,599616064150368162,1679,-351
1778657102.472014,599616064158060469,1679,-358
1778657102.479707,599616064165752776,1679,-358
1778657102.487399,599616064173445083,1679,-355
1778657102.495091,599616064181137390,1679,-351
1778657102.502784,599616064188829697,1679,-343
1778657102.510476,599616064196522004,1679,-353
1778657102.518168,599616064204214311,1679,-351
1778657102.525861,599616064211906618,1679,-343
1778657102.533553,599616064219598925,1679,-343
1778657102.541245,599616064227291232,1679,-339
1778657102.548938,599616064234983539,1679,-336
1778657102.556630,599616064242675846,1679,-331
1778657102.564322,599616064250368153,1679,-341
1778657102.572014,599616064258060460,1679,-363
1778657102.579707,599616064265752767,1679,-341
1778657102.587399,599616064273445074,1679,-329
1778657102.595091,599616064281137381,1679,-343
1778657102.602784,599616064288829688,1679,-343
1778657102.610476,599616064296521995,1679,-331
1778657102.618168,599616064304214302,1679,-324
1778657102.625861,599616064311906609,1679,-327
1778657102.633553,599616064319598916,1679,-331
1778657102.641245,599616064327291223,1679,-327
1778657102.648937,599616064334983530,1679,-329
1778657102.656630,599616064342675837,1679,-324
1778657102.664322,599616064350368144,1679,-324
1778657102.672014,599616064358060451,1679,-331
1778657102.679707,599616064365752758,1679,-324
1778657102.687399,599616064373445065,1679,-322
1778657102.695091,599616064381137372,1679,-329
1778657102.702784,599616064388829679,1679,-334
1778657102.710476,599616064396521986,1679,-336
1778657102.718168,599616064404214293,1679,-322
1778657102.725861,599616064411906600,1679,-315
1778657102.756998,599616064419378070,1752,-310
1778657102.764690,599616064427070377,1752,-305
1778657102.772382,599616064434762684,1752,-329
1778657102.780075,599616064442454991,1752,-329
1778657102.787767,599616064450147298,1752,-305
1778657102.795459,599616064457839605,1752,-317
1778657102.803152,599616064465531912,1752,-327
1778657102.810844,599616064473224219,1752,-305
1778657102.818536,599616064480916526,1752,-307
1778657102.826229,599616064488608833,1752,-310
1778657102.833921,599616064496301140,1752,-303
1778657102.841613,599616064503993447,1752,-300
1778657102.849305,599616064511685754,1752,-295
1778657102.856998,599616064519378061,1752,-305
1778657102.864690,599616064527070368,1752,-343
1778657102.872382,599616064534762675,1752,-370
1778657102.880075,599616064542454982,1752,-363
1778657102.887767,599616064550147289,1752,-343
1778657102.895459,599616064557839596,1752,-334
1778657102.903152,599616064565531903,1752,-329
1778657102.910844,599616064573224210,1752,-343
1778657102.918536,599616064580916517,1752,-322
1778657102.926229,599616064588608824,1752,-185
1778657102.933921,599616064596301131,1752,69
1778657102.941613,599616064603993438,1752,339
1778657102.949306,599616064611685745,1752,216
1778657102.956998,599616064619378052,1752,-351
1778657102.964690,599616064627070359,1752,-682
1778657102.972382,599616064634762666,1752,-543
1778657102.980075,599616064642454973,1752,-382
1778657102.987767,599616064650147280,1752,-372
1778657102.995459,599616064657839587,1752,-367
1778657103.003152,599616064665531894,1752,-346
1778657103.010844,599616064673224201,1752,-365
1778657103.018536,599616064680916508,1752,-377
1778657103.026229,599616064688608815,1752,-341
1778657103.033921,599616064696301122,1752,-315
1778657103.041613,599616064703993429,1752,-312
1778657103.049305,599616064711685736,1752,-315
1778657103.056998,599616064719378043,1752,-324
1778657103.064690,599616064727070350,1752,-312
1778657103.072382,599616064734762657,1752,-307
1778657103.080075,599616064742454964,1752,-317
1778657103.087767,599616064750147271,1752,-315
1778657103.095459,599616064757839578,1752,-303
1778657103.103152,599616064765531885,1752,-288
1778657103.110844,599616064773224192,1752,-281
1778657103.118536,599616064780916499,1752,-283
1778657103.126229,599616064788608806,1752,-264
1778657103.133921,599616064796301113,1752,-247
1778657103.141613,599616064803993420,1752,-242
1778657103.149306,599616064811685727,1752,-240
1778657103.156998,599616064819378034,1752,-228
1778657103.164690,599616064827070341,1752,-204
1778657103.172382,599616064834762648,1752,-202
1778657103.180075,599616064842454955,1752,-204
1778657103.187767,599616064850147262,1752,-175
1778657103.195459,599616064857839569,1752,-158
1778657103.203152,599616064865531876,1752,-168
1778657103.210844,599616064873224183,1752,-175
1778657103.218536,599616064880916490,1752,-173
1778657103.226228,599616064888608797,1752,-182
1778657103.233921,599616064896301104,1752,-221
1778657103.241613,599616064903993411,1752,-254
1778657103.249305,599616064911685718,1752,-283
1778657103.256998,599616064919378025,1752,-315
1778657103.264690,599616064927070332,1752,-339
1778657103.272382,599616064934762639,1752,-379
1778657103.280075,599616064942454946,1752,-416
1778657103.287767,599616064950147253,1752,-408
1778657103.295459,599616064957839560,1752,-416
1778657103.303152,599616064965531867,1752,-430
1778657103.310844,599616064973224174,1752,-435
1778657103.341789,599616064980665126,1825,-428
1778657103.349481,599616064988357433,1825,-408
1778657103.357173,599616064996049740,1825,-408
1778657103.364865,599616065003742047,1825,-406
1778657103.372558,599616065011434354,1825,-399
1778657103.380250,599616065019126661,1825,-401
1778657103.387942,599616065026818968,1825,-396
1778657103.395635,599616065034511275,1825,-401
1778657103.403327,599616065042203582,1825,-406
1778657103.411019,599616065049895889,1825,-377
1778657103.418712,599616065057588196,1825,-372
1778657103.426404,599616065065280503,1825,-384
1778657103.434096,599616065072972810,1825,-384
1778657103.441788,599616065080665117,1825,-377
1778657103.449481,599616065088357424,1825,-372
1778657103.457173,599616065096049731,1825,-394
1778657103.464865,599616065103742038,1825,-389
1778657103.472558,599616065111434345,1825,-365
1778657103.480250,599616065119126652,1825,-370
1778657103.487942,599616065126818959,1825,-375
1778657103.495635,599616065134511266,1825,-377
1778657103.503327,599616065142203573,1825,-379
1778657103.511019,599616065149895880,1825,-370
1778657103.518712,599616065157588187,1825,-363
1778657103.526404,599616065165280494,1825,-353
1778657103.534096,599616065172972801,1825,-355
1778657103.541789,599616065180665108,1825,-375
1778657103.549481,599616065188357415,1825,-367
1778657103.557173,599616065196049722,1825,-355
1778657103.564865,599616065203742029,1825,-353
1778657103.572558,599616065211434336,1825,-353
1778657103.580250,599616065219126643,1825,-363
1778657103.587942,599616065226818950,1825,-365
1778657103.595635,599616065234511257,1825,-363
1778657103.603327,599616065242203564,1825,-351
1778657103.611019,599616065249895871,1825,-339
1778657103.618711,599616065257588178,1825,-351
1778657103.626404,599616065265280485,1825,-351
1778657103.634096,599616065272972792,1825,-343
1778657103.641788,599616065280665099,1825,-351
1778657103.649481,599616065288357406,1825,-351
1778657103.657173,599616065296049713,1825,-351
1778657103.664865,599616065303742020,1825,-339
1778657103.672558,599616065311434327,1825,-334
1778657103.680250,599616065319126634,1825,-348
1778657103.687942,599616065326818941,1825,-351
1778657103.695635,599616065334511248,1825,-341
1778657103.703327,599616065342203555,1825,-331
1778657103.711019,599616065349895862,1825,-327
1778657103.718712,599616065357588169,1825,-336
1778657103.726404,599616065365280476,1825,-336
1778657103.734096,599616065372972783,1825,-334
1778657103.741788,599616065380665090,1825,-331
1778657103.749481,599616065388357397,1825,-329
1778657103.757173,599616065396049704,1825,-341
1778657103.764865,599616065403742011,1825,-331
1778657103.772558,599616065411434318,1825,-310
1778657103.780250,599616065419126625,1825,-315
1778657103.787942,599616065426818932,1825,-305
1778657103.795635,599616065434511239,1825,-300
1778657103.803327,599616065442203546,1825,-317
1778657103.811019,599616065449895853,1825,-317
1778657103.818712,599616065457588160,1825,-324
1778657103.826404,599616065465280467,1825,-331
1778657103.834096,599616065472972774,1825,-331
1778657103.841789,599616065480665081,1825,-339
1778657103.849481,599616065488357388,1825,-334
1778657103.857173,599616065496049695,1825,-331
1778657103.864865,599616065503742002,1825,-331
1778657103.872558,599616065511434309,1825,-334
1778657103.880250,599616065519126616,1825,-341
1778657103.887942,599616065526818923,1825,-334
1778657103.895635,599616065534511230,1825,-305
1778657103.882102,599616065541982700,1898,-197
1778657103.889794,599616065549675007,1898,76
1778657103.897487,599616065557367314,1898,319
1778657103.905179,599616065565059621,1898,144
1778657103.912871,599616065572751928,1898,-379
1778657103.920563,599616065580444235,1898,-646
1778657103.928256,599616065588136542,1898,-502
1778657103.935948,599616065595828849,1898,-375
1778657103.943640,599616065603521156,1898,-384
1778657103.951333,599616065611213463,1898,-367
1778657103.959025,599616065618905770,1898,-346
1778657103.966717,599616065626598077,1898,-348
1778657103.974410,599616065634290384,1898,-351
1778657103.982102,599616065641982691,1898,-346
1778657103.989794,599616065649674998,1898,-329
1778657103.997487,599616065657367305,1898,-324
1778657104.005179,599616065665059612,1898,-327
1778657104.012871,599616065672751919,1898,-322
1778657104.020564,599616065680444226,1898,-322
1778657104.028256,599616065688136533,1898,-312
1778657104.035948,599616065695828840,1898,-312
1778657104.043640,599616065703521147,1898,-310
1778657104.051333,599616065711213454,1898,-293
1778657104.059025,599616065718905761,1898,-278
1778657104.066717,599616065726598068,1898,-271
1778657104.074410,599616065734290375,1898,-276
1778657104.082102,599616065741982682,1898,-269
1778657104.089794,599616065749674989,1898,-247
1778657104.097486,599616065757367296,1898,-247
1778657104.105179,599616065765059603,1898,-238
1778657104.112871,599616065772751910,1898,-221
1778657104.120564,599616065780444217,1898,-218
1778657104.128256,599616065788136524,1898,-202
1778657104.135948,599616065795828831,1898,-182
1778657104.143641,599616065803521138,1898,-173
1778657104.151333,599616065811213445,1898,-163
1778657104.159025,599616065818905752,1898,-163
1778657104.166717,599616065826598059,1898,-161
1778657104.174410,599616065834290366,1898,-165
1778657104.182102,599616065841982673,1898,-192
1778657104.189794,599616065849674980,1898,-206
1778657104.197487,599616065857367287,1898,-228
1778657104.205179,599616065865059594,1898,-266
1778657104.212871,599616065872751901,1898,-310
1778657104.220563,599616065880444208,1898,-343
1778657104.228256,599616065888136515,1898,-355
1778657104.235948,599616065895828822,1898,-370
1778657104.243640,599616065903521129,1898,-387
1778657104.251333,599616065911213436,1898,-391
1778657104.259025,599616065918905743,1898,-396
1778657104.266717,599616065926598050,1898,-394
1778657104.274410,599616065934290357,1898,-396
1778657104.282102,599616065941982664,1898,-404
1778657104.289794,599616065949674971,1898,-391
1778657104.297487,599616065957367278,1898,-379
1778657104.305179,599616065965059585,1898,-367
1778657104.312871,599616065972751892,1898,-370
1778657104.320564,599616065980444199,1898,-377
1778657104.328256,599616065988136506,1898,-363
1778657104.335948,599616065995828813,1898,-363
1778657104.343640,599616066003521120,1898,-372
1778657104.351333,599616066011213427,1898,-358
1778657104.359025,599616066018905734,1898,-358
1778657104.366717,599616066026598041,1898,-358
1778657104.374410,599616066034290348,1898,-351
1778657104.382102,599616066041982655,1898,-353
1778657104.389794,599616066049674962,1898,-358
1778657104.397487,599616066057367269,1898,-365
1778657104.405179,599616066065059576,1898,-353
1778657104.412871,599616066072751883,1898,-339
1778657104.420563,599616066080444190,1898,-351
1778657104.428256,599616066088136497,1898,-353
1778657104.435948,599616066095828804,1898,-351
1778657104.423456,599616066103300274,1971,-351
1778657104.431149,599616066110992581,1971,-343
1778657104.438841,599616066118684888,1971,-346
1778657104.446533,599616066126377195,1971,-341
1778657104.454225,599616066134069502,1971,-339
1778657104.461918,599616066141761809,1971,-343
1778657104.469610,599616066149454116,1971,-339
1778657104.477302,599616066157146423,1971,-346
1778657104.484995,599616066164838730,1971,-346
1778657104.492687,599616066172531037,1971,-336
1778657104.500379,599616066180223344,1971,-341
1778657104.508072,599616066187915651,1971,-343
1778657104.515764,599616066195607958,1971,-336
1778657104.523456,599616066203300265,1971,-329
1778657104.531148,599616066210992572,1971,-324
1778657104.538841,599616066218684879,1971,-334
1778657104.546533,599616066226377186,1971,-334
1778657104.554225,599616066234069493,1971,-331
1778657104.561918,599616066241761800,1971,-343
1778657104.569610,599616066249454107,1971,-334
1778657104.577302,599616066257146414,1971,-324
1778657104.584995,599616066264838721,1971,-329
1778657104.592687,599616066272531028,1971,-336
1778657104.600379,599616066280223335,1971,-336
1778657104.608072,599616066287915642,1971,-319
1778657104.615764,599616066295607949,1971,-322
1778657104.623456,599616066303300256,1971,-327
1778657104.631149,599616066310992563,1971,-317
1778657104.638841,599616066318684870,1971,-327
1778657104.646533,599616066326377177,1971,-331
1778657104.654225,599616066334069484,1971,-319
1778657104.661918,599616066341761791,1971,-315
1778657104.669610,599616066349454098,1971,-317
1778657104.677302,599616066357146405,1971,-327
1778657104.684995,599616066364838712,1971,-319
1778657104.692687,599616066372531019,1971,-312
1778657104.700379,599616066380223326,1971,-334
1778657104.708071,599616066387915633,1971,-331
1778657104.715764,599616066395607940,1971,-310
1778657104.723456,599616066403300247,1971,-300
1778657104.731148,599616066410992554,1971,-293
1778657104.738841,599616066418684861,1971,-298
1778657104.746533,599616066426377168,1971,-305
1778657104.754225,599616066434069475,1971,-305
1778657104.761918,599616066441761782,1971,-305
1778657104.769610,599616066449454089,1971,-307
1778657104.777302,599616066457146396,1971,-322
1778657104.784995,599616066464838703,1971,-327
1778657104.792687,599616066472531010,1971,-319
1778657104.800379,599616066480223317,1971,-317
1778657104.808072,599616066487915624,1971,-312
1778657104.815764,599616066495607931,1971,-322
1778657104.823456,599616066503300238,1971,-329
1778657104.831148,599616066510992545,1971,-319
1778657104.838841,599616066518684852,1971,-300
1778657104.846533,599616066526377159,1971,-185
1778657104.854225,599616066534069466,1971,88
1778657104.861918,599616066541761773,1971,351
1778657104.869610,599616066549454080,1971,204
1778657104.877302,599616066557146387,1971,-353
1778657104.884995,599616066564838694,1971,-654
1778657104.892687,599616066572531001,1971,-502
1778657104.900379,599616066580223308,1971,-375
1778657104.908072,599616066587915615,1971,-372
1778657104.915764,599616066595607922,1971,-348
1778657104.923456,599616066603300229,1971,-331
1778657104.931149,599616066610992536,1971,-339
1778657104.938841,599616066618684843,1971,-336
1778657104.946533,599616066626377150,1971,-317
1778657104.954225,599616066634069457,1971,-315
1778657104.961918,599616066641761764,1971,-317
1778657104.969610,599616066649454071,1971,-300
1778657104.977302,599616066657146378,1971,-295
1778657105.007922,599616066664592413,2044,-303
1778657105.015615,599616066672284720,2044,-298
1778657105.023307,599616066679977027,2044,-293
1778657105.030999,599616066687669334,2044,-286
1778657105.038691,599616066695361641,2044,-283
1778657105.046384,599616066703053948,2044,-274
1778657105.054076,599616066710746255,2044,-259
1778657105.061768,599616066718438562,2044,-266
1778657105.069461,599616066726130869,2044,-257
1778657105.077153,599616066733823176,2044,-238
1778657105.084845,599616066741515483,2044,-233
1778657105.092538,599616066749207790,2044,-218
1778657105.100230,599616066756900097,2044,-204
1778657105.107922,599616066764592404,2044,-192
1778657105.115614,599616066772284711,2044,-177
1778657105.123307,599616066779977018,2044,-175
1778657105.130999,599616066787669325,2044,-161
1778657105.138691,599616066795361632,2044,-153
1778657105.146384,599616066803053939,2044,-158
1778657105.154076,599616066810746246,2044,-149
1778657105.161768,599616066818438553,2044,-156
1778657105.169461,599616066826130860,2044,-165
1778657105.177153,599616066833823167,2044,-185
1778657105.184845,599616066841515474,2044,-228
1778657105.192538,599616066849207781,2044,-259
1778657105.200230,599616066856900088,2044,-290
1778657105.207922,599616066864592395,2044,-322
1778657105.215615,599616066872284702,2044,-346
1778657105.223307,599616066879977009,2044,-379
1778657105.230999,599616066887669316,2044,-391
1778657105.238691,599616066895361623,2044,-396
1778657105.246384,599616066903053930,2044,-404
1778657105.254076,599616066910746237,2044,-394
1778657105.261768,599616066918438544,2044,-396
1778657105.269461,599616066926130851,2044,-401
1778657105.277153,599616066933823158,2044,-394
1778657105.284845,599616066941515465,2044,-389
1778657105.292537,599616066949207772,2044,-377
1778657105.300230,599616066956900079,2044,-379
1778657105.307922,599616066964592386,2044,-377
1778657105.315614,599616066972284693,2044,-360
1778657105.323307,599616066979977000,2044,-358
1778657105.330999,599616066987669307,2044,-360
1778657105.338691,599616066995361614,2044,-358
1778657105.346384,599616067003053921,2044,-355
1778657105.354076,599616067010746228,2044,-348
1778657105.361768,599616067018438535,2044,-353
1778657105.369461,599616067026130842,2044,-348
1778657105.377153,599616067033823149,2044,-343
1778657105.384845,599616067041515456,2044,-351
1778657105.392538,599616067049207763,2044,-348
1778657105.400230,599616067056900070,2044,-348
1778657105.407922,599616067064592377,2044,-351
1778657105.415614,599616067072284684,2044,-343
1778657105.423307,599616067079976991,2044,-343
1778657105.430999,599616067087669298,2044,-341
1778657105.438691,599616067095361605,2044,-336
1778657105.446384,599616067103053912,2044,-336
1778657105.454076,599616067110746219,2044,-334
1778657105.461768,599616067118438526,2044,-341
1778657105.469460,599616067126130833,2044,-339
1778657105.477153,599616067133823140,2044,-334
1778657105.484845,599616067141515447,2044,-334
1778657105.492537,599616067149207754,2044,-324
1778657105.500230,599616067156900061,2044,-331
1778657105.507922,599616067164592368,2044,-341
1778657105.515615,599616067172284675,2044,-327
1778657105.523307,599616067179976982,2044,-324
1778657105.530999,599616067187669289,2044,-329
1778657105.538691,599616067195361596,2044,-331
1778657105.546384,599616067203053903,2044,-331
1778657105.554076,599616067210746210,2044,-322
1778657105.561768,599616067218438517,2044,-324
1778657105.547651,599616067225904904,2117,-327
1778657105.555343,599616067233597211,2117,-327
1778657105.563035,599616067241289518,2117,-327
1778657105.570728,599616067248981825,2117,-315
1778657105.578420,599616067256674132,2117,-317
1778657105.586112,599616067264366439,2117,-329
1778657105.593805,599616067272058746,2117,-329
1778657105.601497,599616067279751053,2117,-334
1778657105.609189,599616067287443360,2117,-329
1778657105.616882,599616067295135667,2117,-324
1778657105.624574,599616067302827974,2117,-327
1778657105.632266,599616067310520281,2117,-322
1778657105.639958,599616067318212588,2117,-327
1778657105.647651,599616067325904895,2117,-324
1778657105.655343,599616067333597202,2117,-317
1778657105.663035,599616067341289509,2117,-319
1778657105.670728,599616067348981816,2117,-327
1778657105.678420,599616067356674123,2117,-336
1778657105.686112,599616067364366430,2117,-329
1778657105.693805,599616067372058737,2117,-312
1778657105.701497,599616067379751044,2117,-310
1778657105.709189,599616067387443351,2117,-300
1778657105.716882,599616067395135658,2117,-298
1778657105.724574,599616067402827965,2117,-307
1778657105.732266,599616067410520272,2117,-307
1778657105.739959,599616067418212579,2117,-315
1778657105.747651,599616067425904886,2117,-315
1778657105.755343,599616067433597193,2117,-317
1778657105.763035,599616067441289500,2117,-334
1778657105.770728,599616067448981807,2117,-329
1778657105.778420,599616067456674114,2117,-319
1778657105.786112,599616067464366421,2117,-322
1778657105.793805,599616067472058728,2117,-317
1778657105.801497,599616067479751035,2117,-317
1778657105.809189,599616067487443342,2117,-319
1778657105.816882,599616067495135649,2117,-315
1778657105.824574,599616067502827956,2117,-252
1778657105.832266,599616067510520263,2117,-36
1778657105.839958,599616067518212570,2117,286
1778657105.847651,599616067525904877,2117,348
1778657105.855343,599616067533597184,2117,-113
1778657105.863035,599616067541289491,2117,-598
1778657105.870728,599616067548981798,2117,-586
1778657105.878420,599616067556674105,2117,-394
1778657105.886112,599616067564366412,2117,-365
1778657105.893805,599616067572058719,2117,-372
1778657105.901497,599616067579751026,2117,-348
1778657105.909189,599616067587443333,2117,-343
1778657105.916882,599616067595135640,2117,-339
1778657105.924574,599616067602827947,2117,-334
1778657105.932266,599616067610520254,2117,-339
1778657105.939959,599616067618212561,2117,-334
1778657105.947651,599616067625904868,2117,-312
1778657105.955343,599616067633597175,2117,-298
1778657105.963035,599616067641289482,2117,-298
1778657105.970728,599616067648981789,2117,-290
1778657105.978420,599616067656674096,2117,-295
1778657105.986112,599616067664366403,2117,-298
1778657105.993805,599616067672058710,2117,-283
1778657106.001497,599616067679751017,2117,-274
1778657106.009189,599616067687443324,2117,-259
1778657106.016881,599616067695135631,2117,-250
1778657106.024574,599616067702827938,2117,-264
1778657106.032266,599616067710520245,2117,-254
1778657106.039958,599616067718212552,2117,-223
1778657106.047651,599616067725904859,2117,-204
1778657106.055343,599616067733597166,2117,-204
1778657106.063035,599616067741289473,2117,-206
1778657106.070728,599616067748981780,2117,-185
1778657106.078420,599616067756674087,2117,-151
1778657106.086112,599616067764366394,2117,-137
1778657106.093805,599616067772058701,2117,-151
1778657106.101497,599616067779751008,2117,-158
1778657106.132179,599616067787222478,2190,-134
1778657106.139872,599616067794914785,2190,-137
1778657106.147564,599616067802607092,2190,-163
1778657106.155256,599616067810299399,2190,-165
1778657106.162949,599616067817991706,2190,-189
1778657106.170641,599616067825684013,2190,-230
1778657106.178333,599616067833376320,2190,-266
1778657106.186026,599616067841068627,2190,-305
1778657106.193718,599616067848760934,2190,-327
1778657106.201410,599616067856453241,2190,-351
1778657106.209103,599616067864145548,2190,-382
1778657106.216795,599616067871837855,2190,-382
1778657106.224487,599616067879530162,2190,-375
1778657106.232179,599616067887222469,2190,-379
1778657106.239872,599616067894914776,2190,-387
1778657106.247564,599616067902607083,2190,-389
1778657106.255256,599616067910299390,2190,-375
1778657106.262949,599616067917991697,2190,-372
1778657106.270641,599616067925684004,2190,-377
1778657106.278333,599616067933376311,2190,-363
1778657106.286026,599616067941068618,2190,-358
1778657106.293718,599616067948760925,2190,-358
1778657106.301410,599616067956453232,2190,-353
1778657106.309103,599616067964145539,2190,-360
1778657106.316795,599616067971837846,2190,-353
1778657106.324487,599616067979530153,2190,-341
1778657106.332180,599616067987222460,2190,-329
1778657106.339872,599616067994914767,2190,-327
1778657106.347564,599616068002607074,2190,-334
1778657106.355256,599616068010299381,2190,-327
1778657106.362949,599616068017991688,2190,-329
1778657106.370641,599616068025683995,2190,-334
1778657106.378333,599616068033376302,2190,-334
1778657106.386026,599616068041068609,2190,-336
1778657106.393718,599616068048760916,2190,-322
1778657106.401410,599616068056453223,2190,-322
1778657106.409102,599616068064145530,2190,-339
1778657106.416795,599616068071837837,2190,-329
1778657106.424487,599616068079530144,2190,-322
1778657106.432179,599616068087222451,2190,-317
1778657106.439872,599616068094914758,2190,-315
1778657106.447564,599616068102607065,2190,-329
1778657106.455256,599616068110299372,2190,-322
1778657106.462949,599616068117991679,2190,-324
1778657106.470641,599616068125683986,2190,-322
1778657106.478333,599616068133376293,2190,-305
1778657106.486026,599616068141068600,2190,-315
1778657106.493718,599616068148760907,2190,-317
1778657106.501410,599616068156453214,2190,-312
1778657106.509103,599616068164145521,2190,-315
1778657106.516795,599616068171837828,2190,-307
1778657106.524487,599616068179530135,2190,-310
1778657106.532179,599616068187222442,2190,-310
1778657106.539872,599616068194914749,2190,-315
1778657106.547564,599616068202607056,2190,-324
1778657106.555256,599616068210299363,2190,-307
1778657106.562949,599616068217991670,2190,-303
1778657106.570641,599616068225683977,2190,-312
1778657106.578333,599616068233376284,2190,-307
1778657106.586026,599616068241068591,2190,-312
1778657106.593718,599616068248760898,2190,-312
1778657106.601410,599616068256453205,2190,-305
1778657106.609102,599616068264145512,2190,-305
1778657106.616795,599616068271837819,2190,-303
1778657106.624487,599616068279530126,2190,-322
1778657106.632179,599616068287222433,2190,-327
1778657106.639872,599616068294914740,2190,-307
1778657106.647564,599616068302607047,2190,-307
1778657106.655256,599616068310299354,2190,-303
1778657106.662949,599616068317991661,2190,-307
1778657106.670641,599616068325683968,2190,-327
1778657106.678333,599616068333376275,2190,-319
1778657106.686026,599616068341068582,2190,-307
1778657106.673500,599616068348540052,2263,-312
1778657106.681192,599616068356232359,2263,-322
1778657106.688884,599616068363924666,2263,-319
1778657106.696577,599616068371616973,2263,-312
1778657106.704269,599616068379309280,2263,-315
1778657106.711961,599616068387001587,2263,-293
1778657106.719654,599616068394693894,2263,-271
1778657106.727346,599616068402386201,2263,-286
1778657106.735038,599616068410078508,2263,-298
1778657106.742731,599616068417770815,2263,-305
1778657106.750423,599616068425463122,2263,-307
1778657106.758115,599616068433155429,2263,-305
1778657106.765807,599616068440847736,2263,-315
1778657106.773500,599616068448540043,2263,-319
1778657106.781192,599616068456232350,2263,-324
1778657106.788884,599616068463924657,2263,-319
1778657106.796577,599616068471616964,2263,-298
1778657106.804269,599616068479309271,2263,-303
1778657106.811961,599616068487001578,2263,-317
1778657106.819654,599616068494693885,2263,-317
1778657106.827346,599616068502386192,2263,-317
1778657106.835038,599616068510078499,2263,-286
1778657106.842731,599616068517770806,2263,-173
1778657106.850423,599616068525463113,2263,88
1778657106.858115,599616068533155420,2263,346
1778657106.865808,599616068540847727,2263,151
1778657106.873500,599616068548540034,2263,-382
1778657106.881192,599616068556232341,2263,-606
1778657106.888884,599616068563924648,2263,-452
1778657106.896577,599616068571616955,2263,-343
1778657106.904269,599616068579309262,2263,-370
1778657106.911961,599616068587001569,2263,-353
1778657106.919654,599616068594693876,2263,-315
1778657106.927346,599616068602386183,2263,-334
1778657106.935038,599616068610078490,2263,-336
1778657106.942731,599616068617770797,2263,-322
1778657106.950423,599616068625463104,2263,-322
1778657106.958115,599616068633155411,2263,-305
1778657106.965807,599616068640847718,2263,-298
1778657106.973500,599616068648540025,2263,-305
1778657106.981192,599616068656232332,2263,-298
1778657106.988884,599616068663924639,2263,-286
1778657106.996577,599616068671616946,2263,-281
1778657107.004269,599616068679309253,2263,-286
1778657107.011961,599616068687001560,2263,-283
1778657107.019654,599616068694693867,2263,-271
1778657107.027346,599616068702386174,2263,-262
1778657107.035038,599616068710078481,2263,-247
1778657107.042731,599616068717770788,2263,-247
1778657107.050423,599616068725463095,2263,-242
1778657107.058115,599616068733155402,2263,-218
1778657107.065808,599616068740847709,2263,-214
1778657107.073500,599616068748540016,2263,-211
1778657107.081192,599616068756232323,2263,-202
1778657107.088884,599616068763924630,2263,-182
1778657107.096577,599616068771616937,2263,-153
1778657107.104269,599616068779309244,2263,-149
1778657107.111961,599616068787001551,2263,-156
1778657107.119654,599616068794693858,2263,-146
1778657107.127346,599616068802386165,2263,-146
1778657107.135038,599616068810078472,2263,-149
1778657107.142730,599616068817770779,2263,-165
1778657107.150423,599616068825463086,2263,-192
1778657107.158115,599616068833155393,2263,-214
1778657107.165807,599616068840847700,2263,-252
1778657107.173500,599616068848540007,2263,-290
1778657107.181192,599616068856232314,2263,-317
1778657107.188884,599616068863924621,2263,-346
1778657107.196577,599616068871616928,2263,-358
1778657107.204269,599616068879309235,2263,-372
1778657107.211961,599616068887001542,2263,-382
1778657107.219654,599616068894693849,2263,-379
1778657107.227346,599616068902386156,2263,-384
1778657107.257545,599616068909842365,2336,-382
1778657107.265237,599616068917534672,2336,-377
1778657107.272929,599616068925226979,2336,-375
1778657107.280622,599616068932919286,2336,-370
1778657107.288314,599616068940611593,2336,-375
1778657107.296006,599616068948303900,2336,-370
1778657107.303699,599616068955996207,2336,-360
1778657107.311391,599616068963688514,2336,-358
1778657107.319083,599616068971380821,2336,-343
1778657107.326776,599616068979073128,2336,-341
1778657107.334468,599616068986765435,2336,-343
1778657107.342160,599616068994457742,2336,-343
1778657107.349852,599616069002150049,2336,-360
1778657107.357545,599616069009842356,2336,-355
1778657107.365237,599616069017534663,2336,-346
1778657107.372929,599616069025226970,2336,-341
1778657107.380622,599616069032919277,2336,-329
1778657107.388314,599616069040611584,2336,-331
1778657107.396006,599616069048303891,2336,-336
1778657107.403699,599616069055996198,2336,-339
1778657107.411391,599616069063688505,2336,-355
1778657107.419083,599616069071380812,2336,-346
1778657107.426775,599616069079073119,2336,-331
1778657107.434468,599616069086765426,2336,-336
1778657107.442160,599616069094457733,2336,-336
1778657107.449852,599616069102150040,2336,-339
1778657107.457545,599616069109842347,2336,-339
1778657107.465237,599616069117534654,2336,-329
1778657107.472929,599616069125226961,2336,-322
1778657107.480622,599616069132919268,2336,-327
1778657107.488314,599616069140611575,2336,-339
1778657107.496006,599616069148303882,2336,-324
1778657107.503699,599616069155996189,2336,-317
1778657107.511391,599616069163688496,2336,-329
1778657107.519083,599616069171380803,2336,-324
1778657107.526776,599616069179073110,2336,-315
1778657107.534468,599616069186765417,2336,-310
1778657107.542160,599616069194457724,2336,-310
1778657107.549852,599616069202150031,2336,-324
1778657107.557545,599616069209842338,2336,-310
1778657107.565237,599616069217534645,2336,-300
1778657107.572929,599616069225226952,2336,-312
1778657107.580622,599616069232919259,2336,-322
1778657107.588314,599616069240611566,2336,-327
1778657107.596006,599616069248303873,2336,-312
1778657107.603698,599616069255996180,2336,-298
1778657107.611391,599616069263688487,2336,-307
1778657107.619083,599616069271380794,2336,-305
1778657107.626776,599616069279073101,2336,-305
1778657107.634468,599616069286765408,2336,-307
1778657107.642160,599616069294457715,2336,-298
1778657107.649853,599616069302150022,2336,-303
1778657107.657545,599616069309842329,2336,-307
1778657107.665237,599616069317534636,2336,-307
1778657107.672929,599616069325226943,2336,-303
1778657107.680622,599616069332919250,2336,-295
1778657107.688314,599616069340611557,2336,-298
1778657107.696006,599616069348303864,2336,-290
1778657107.703699,599616069355996171,2336,-286
1778657107.711391,599616069363688478,2336,-303
1778657107.719083,599616069371380785,2336,-295
1778657107.726775,599616069379073092,2336,-286
1778657107.734468,599616069386765399,2336,-286
1778657107.742160,599616069394457706,2336,-274
1778657107.749852,599616069402150013,2336,-266
1778657107.757545,599616069409842320,2336,-262
1778657107.765237,599616069417534627,2336,-264
1778657107.772929,599616069425226934,2336,-278
1778657107.780622,599616069432919241,2336,-271
1778657107.788314,599616069440611548,2336,-266
1778657107.796006,599616069448303855,2336,-276
1778657107.803699,599616069455996162,2336,-283
1778657107.811391,599616069463688469,2336,-290
1778657107.797935,599616069471154852,2409,-286
1778657107.805627,599616069478847159,2409,-281
1778657107.813319,599616069486539466,2409,-281
1778657107.821012,599616069494231773,2409,-283
1778657107.828704,599616069501924080,2409,-281
1778657107.836396,599616069509616387,2409,-278
1778657107.844089,599616069517308694,2409,-278
1778657107.851781,599616069525001001,2409,-189
1778657107.859473,599616069532693308,2409,62
1778657107.867166,599616069540385615,2409,341
1778657107.874858,599616069548077922,2409,278
1778657107.882550,599616069555770229,2409,-211
1778657107.890242,599616069563462536,2409,-581
1778657107.897935,599616069571154843,2409,-502
1778657107.905627,599616069578847150,2409,-353
1778657107.913319,599616069586539457,2409,-339
1778657107.921012,599616069594231764,2409,-336
1778657107.928704,599616069601924071,2409,-315
1778657107.936396,599616069609616378,2409,-300
1778657107.944089,599616069617308685,2409,-290
1778657107.951781,599616069625000992,2409,-288
1778657107.959473,599616069632693299,2409,-276
1778657107.967165,599616069640385606,2409,-274
1778657107.974858,599616069648077913,2409,-276
1778657107.982550,599616069655770220,2409,-264
1778657107.990242,599616069663462527,2409,-259
1778657107.997935,599616069671154834,2409,-266
1778657108.005627,599616069678847141,2409,-266
1778657108.013319,599616069686539448,2409,-250
1778657108.021012,599616069694231755,2409,-235
1778657108.028704,599616069701924062,2409,-245
1778657108.036396,599616069709616369,2409,-235
1778657108.044089,599616069717308676,2409,-218
1778657108.051781,599616069725000983,2409,-214
1778657108.059473,599616069732693290,2409,-199
1778657108.067166,599616069740385597,2409,-197
1778657108.074858,599616069748077904,2409,-182
1778657108.082550,599616069755770211,2409,-165
1778657108.090242,599616069763462518,2409,-175
1778657108.097935,599616069771154825,2409,-153
1778657108.105627,599616069778847132,2409,-125
1778657108.113319,599616069786539439,2409,-120
1778657108.121012,599616069794231746,2409,-113
1778657108.128704,599616069801924053,2409,-110
1778657108.136396,599616069809616360,2409,-110
1778657108.144089,599616069817308667,2409,-105
1778657108.151781,599616069825000974,2409,-117
1778657108.159473,599616069832693281,2409,-149
1778657108.167166,599616069840385588,2409,-189
1778657108.174858,599616069848077895,2409,-226
1778657108.182550,599616069855770202,2409,-257
1778657108.190243,599616069863462509,2409,-288
1778657108.197935,599616069871154816,2409,-310
1778657108.205627,599616069878847123,2409,-339
1778657108.213319,599616069886539430,2409,-341
1778657108.221012,599616069894231737,2409,-341
1778657108.228704,599616069901924044,2409,-379
1778657108.236396,599616069909616351,2409,-387
1778657108.244089,599616069917308658,2409,-360
1778657108.251781,599616069925000965,2409,-370
1778657108.259473,599616069932693272,2409,-365
1778657108.267165,599616069940385579,2409,-346
1778657108.274858,599616069948077886,2409,-348
1778657108.282550,599616069955770193,2409,-358
1778657108.290242,599616069963462500,2409,-353
1778657108.297935,599616069971154807,2409,-327
1778657108.305627,599616069978847114,2409,-322
1778657108.313319,599616069986539421,2409,-331
1778657108.321012,599616069994231728,2409,-322
1778657108.328704,599616070001924035,2409,-327
1778657108.336396,599616070009616342,2409,-331
1778657108.344089,599616070017308649,2409,-312
1778657108.351781,599616070025000956,2409,-307
1778657108.337025,599616070032467339,2482,-324
1778657108.344717,599616070040159646,2482,-329
1778657108.352409,599616070047851953,2482,-300
1778657108.360101,599616070055544260,2482,-286
1778657108.367794,599616070063236567,2482,-315
1778657108.375486,599616070070928874,2482,-324
1778657108.383178,599616070078621181,2482,-324
1778657108.390871,599616070086313488,2482,-336
1778657108.398563,599616070094005795,2482,-315
1778657108.406255,599616070101698102,2482,-300
1778657108.413948,599616070109390409,2482,-310
1778657108.421640,599616070117082716,2482,-305
1778657108.429332,599616070124775023,2482,-303
1778657108.437025,599616070132467330,2482,-300
1778657108.444717,599616070140159637,2482,-319
1778657108.452409,599616070147851944,2482,-334
1778657108.460102,599616070155544251,2482,-300
1778657108.467794,599616070163236558,2482,-274
1778657108.475486,599616070170928865,2482,-295
1778657108.483179,599616070178621172,2482,-327
1778657108.490871,599616070186313479,2482,-322
1778657108.498563,599616070194005786,2482,-303
1778657108.506255,599616070201698093,2482,-307
1778657108.513948,599616070209390400,2482,-303
1778657108.521640,599616070217082707,2482,-298
1778657108.529332,599616070224775014,2482,-303
1778657108.537025,599616070232467321,2482,-283
1778657108.544717,599616070240159628,2482,-283
1778657108.552409,599616070247851935,2482,-312
1778657108.560102,599616070255544242,2482,-312
1778657108.567794,599616070263236549,2482,-298
1778657108.575486,599616070270928856,2482,-290
1778657108.583179,599616070278621163,2482,-298
1778657108.590871,599616070286313470,2482,-303
1778657108.598563,599616070294005777,2482,-293
1778657108.606256,599616070301698084,2482,-288
1778657108.613948,599616070309390391,2482,-281
1778657108.621640,599616070317082698,2482,-300
1778657108.629332,599616070324775005,2482,-317
1778657108.637025,599616070332467312,2482,-286
1778657108.644717,599616070340159619,2482,-283
1778657108.652409,599616070347851926,2482,-315
1778657108.660102,599616070355544233,2482,-310
1778657108.667794,599616070363236540,2482,-295
1778657108.675486,599616070370928847,2482,-288
1778657108.683178,599616070378621154,2482,-281
1778657108.690871,599616070386313461,2482,-278
1778657108.698563,599616070394005768,2482,-288
1778657108.706255,599616070401698075,2482,-307
1778657108.713948,599616070409390382,2482,-295
1778657108.721640,599616070417082689,2482,-276
1778657108.729332,599616070424774996,2482,-281
1778657108.737025,599616070432467303,2482,-274
1778657108.744717,599616070440159610,2482,-276
1778657108.752409,599616070447851917,2482,-286
1778657108.760102,599616070455544224,2482,-278
1778657108.767794,599616070463236531,2482,-281
1778657108.775486,599616070470928838,2482,-298
1778657108.783179,599616070478621145,2482,-307
1778657108.790871,599616070486313452,2482,-300
1778657108.798563,599616070494005759,2482,-290
1778657108.806255,599616070501698066,2482,-298
1778657108.813948,599616070509390373,2482,-290
1778657108.821640,599616070517082680,2482,-288
1778657108.829332,599616070524774987,2482,-307
1778657108.837025,599616070532467294,2482,-281
1778657108.844717,599616070540159601,2482,-168
1778657108.852409,599616070547851908,2482,55
1778657108.860101,599616070555544215,2482,322
1778657108.867794,599616070563236522,2482,245
1778657108.875486,599616070570928829,2482,-252
1778657108.883178,599616070578621136,2482,-581
1778657108.890871,599616070586313443,2482,-485
1778657108.923168,599616070593779830,2555,-336
1778657108.930860,599616070601472137,2555,-329
1778657108.938553,599616070609164444,2555,-329
1778657108.946245,599616070616856751,2555,-305
1778657108.953937,599616070624549058,2555,-312
1778657108.961629,599616070632241365,2555,-319
1778657108.969322,599616070639933672,2555,-315
1778657108.977014,599616070647625979,2555,-298
1778657108.984706,599616070655318286,2555,-286
1778657108.992399,599616070663010593,2555,-288
1778657109.000091,599616070670702900,2555,-278
1778657109.007783,599616070678395207,2555,-266
1778657109.015476,599616070686087514,2555,-262
1778657109.023168,599616070693779821,2555,-269
1778657109.030860,599616070701472128,2555,-278
1778657109.038553,599616070709164435,2555,-259
1778657109.046245,599616070716856742,2555,-242
1778657109.053937,599616070724549049,2555,-250
1778657109.061630,599616070732241356,2555,-230
1778657109.069322,599616070739933663,2555,-216
