timestamp_unix,timestamp_polar_ns,sample_index,ecg_uv
1778658143.936624,599617105595941506,0,-577
1778658143.944316,599617105603633813,0,-456
1778658143.952009,599617105611326120,0,-240
1778658143.959701,599617105619018427,0,-202
1778658143.967393,599617105626710734,0,-187
1778658143.975085,599617105634403041,0,-161
1778658143.982778,599617105642095348,0,-161
1778658143.990470,599617105649787655,0,-151
1778658143.998163,599617105657479962,0,-139
1778658144.005855,599617105665172269,0,-144
1778658144.013547,599617105672864576,0,-139
1778658144.021240,599617105680556883,0,-122
1778658144.028932,599617105688249190,0,-129
1778658144.036624,599617105695941497,0,-134
1778658144.044316,599617105703633804,0,-120
1778658144.052009,599617105711326111,0,-117
1778658144.059701,599617105719018418,0,-122
1778658144.067393,599617105726710725,0,-113
1778658144.075086,599617105734403032,0,-103
1778658144.082778,599617105742095339,0,-101
1778658144.090470,599617105749787646,0,-88
1778658144.098162,599617105757479953,0,-67
1778658144.105855,599617105765172260,0,-60
1778658144.113547,599617105772864567,0,-67
1778658144.121239,599617105780556874,0,-52
1778658144.128932,599617105788249181,0,-28
1778658144.136624,599617105795941488,0,-16
1778658144.144316,599617105803633795,0,2
1778658144.152009,599617105811326102,0,24
1778658144.159701,599617105819018409,0,33
1778658144.167393,599617105826710716,0,40
1778658144.175086,599617105834403023,0,48
1778658144.182778,599617105842095330,0,57
1778658144.190470,599617105849787637,0,67
1778658144.198163,599617105857479944,0,55
1778658144.205855,599617105865172251,0,38
1778658144.213547,599617105872864558,0,12
1778658144.221239,599617105880556865,0,-45
1778658144.228932,599617105888249172,0,-101
1778658144.236624,599617105895941479,0,-137
1778658144.244316,599617105903633786,0,-180
1778658144.252009,599617105911326093,0,-211
1778658144.259701,599617105919018400,0,-223
1778658144.267393,599617105926710707,0,-242
1778658144.275085,599617105934403014,0,-266
1778658144.282778,599617105942095321,0,-271
1778658144.290470,599617105949787628,0,-281
1778658144.298162,599617105957479935,0,-290
1778658144.305855,599617105965172242,0,-276
1778658144.313547,599617105972864549,0,-252
1778658144.321239,599617105980556856,0,-240
1778658144.328932,599617105988249163,0,-235
1778658144.336624,599617105995941470,0,-230
1778658144.344316,599617106003633777,0,-226
1778658144.352009,599617106011326084,0,-214
1778658144.359701,599617106019018391,0,-202
1778658144.367393,599617106026710698,0,-197
1778658144.375086,599617106034403005,0,-189
1778658144.382778,599617106042095312,0,-175
1778658144.390470,599617106049787619,0,-168
1778658144.398162,599617106057479926,0,-170
1778658144.405855,599617106065172233,0,-170
1778658144.413547,599617106072864540,0,-170
1778658144.421239,599617106080556847,0,-161
1778658144.428932,599617106088249154,0,-146
1778658144.436624,599617106095941461,0,-156
1778658144.444316,599617106103633768,0,-170
1778658144.452009,599617106111326075,0,-156
1778658144.459701,599617106119018382,0,-149
1778658144.467393,599617106126710689,0,-161
1778658144.475085,599617106134402996,0,-149
1778658144.482778,599617106142095303,0,-127
1778658144.490470,599617106149787610,0,-132
1778658144.477459,599617106157248906,73,-141
1778658144.485151,599617106164941213,73,-144
1778658144.492844,599617106172633520,73,-151
1778658144.500536,599617106180325827,73,-156
1778658144.508228,599617106188018134,73,-146
1778658144.515920,599617106195710441,73,-127
1778658144.523613,599617106203402748,73,-122
1778658144.531305,599617106211095055,73,-141
1778658144.538997,599617106218787362,73,-141
1778658144.546690,599617106226479669,73,-127
1778658144.554382,599617106234171976,73,-141
1778658144.562074,599617106241864283,73,-134
1778658144.569767,599617106249556590,73,-113
1778658144.577459,599617106257248897,73,-125
1778658144.585151,599617106264941204,73,-139
1778658144.592844,599617106272633511,73,-127
1778658144.600536,599617106280325818,73,-125
1778658144.608228,599617106288018125,73,-117
1778658144.615921,599617106295710432,73,-113
1778658144.623613,599617106303402739,73,-134
1778658144.631305,599617106311095046,73,-151
1778658144.638997,599617106318787353,73,-134
1778658144.646690,599617106326479660,73,-120
1778658144.654382,599617106334171967,73,-122
1778658144.662074,599617106341864274,73,-113
1778658144.669767,599617106349556581,73,-103
1778658144.677459,599617106357248888,73,-110
1778658144.685151,599617106364941195,73,-120
1778658144.692843,599617106372633502,73,-122
1778658144.700536,599617106380325809,73,-115
1778658144.708228,599617106388018116,73,-110
1778658144.715920,599617106395710423,73,-120
1778658144.723613,599617106403402730,73,-125
1778658144.731305,599617106411095037,73,-103
1778658144.738997,599617106418787344,73,-76
1778658144.746690,599617106426479651,73,-84
1778658144.754382,599617106434171958,73,-101
1778658144.762074,599617106441864265,73,-101
1778658144.769767,599617106449556572,73,-101
1778658144.777459,599617106457248879,73,-101
1778658144.785151,599617106464941186,73,-108
1778658144.792844,599617106472633493,73,-127
1778658144.800536,599617106480325800,73,-134
1778658144.808228,599617106488018107,73,-122
1778658144.815920,599617106495710414,73,-108
1778658144.823613,599617106503402721,73,-103
1778658144.831305,599617106511095028,73,-113
1778658144.838997,599617106518787335,73,-122
1778658144.846690,599617106526479642,73,-108
1778658144.854382,599617106534171949,73,-86
1778658144.862074,599617106541864256,73,-88
1778658144.869767,599617106549556563,73,-72
1778658144.877459,599617106557248870,73,62
1778658144.885151,599617106564941177,73,355
1778658144.892843,599617106572633484,73,625
1778658144.900536,599617106580325791,73,447
1778658144.908228,599617106588018098,73,-163
1778658144.915920,599617106595710405,73,-507
1778658144.923613,599617106603402712,73,-363
1778658144.931305,599617106611095019,73,-214
1778658144.938997,599617106618787326,73,-192
1778658144.946690,599617106626479633,73,-139
1778658144.954382,599617106634171940,73,-91
1778658144.962074,599617106641864247,73,-88
1778658144.969767,599617106649556554,73,-88
1778658144.977459,599617106657248861,73,-81
1778658144.985151,599617106664941168,73,-84
1778658144.992844,599617106672633475,73,-79
1778658145.000536,599617106680325782,73,-67
1778658145.008228,599617106688018089,73,-67
1778658145.015920,599617106695710396,73,-74
1778658145.023613,599617106703402703,73,-67
1778658145.031305,599617106711095010,73,-55
1778658145.017526,599617106718530875,146,-50
1778658145.025218,599617106726223182,146,-40
1778658145.032911,599617106733915489,146,-24
1778658145.040603,599617106741607796,146,-9
1778658145.048295,599617106749300103,146,-2
1778658145.055987,599617106756992410,146,-9
1778658145.063680,599617106764684717,146,-9
1778658145.071372,599617106772377024,146,21
1778658145.079064,599617106780069331,146,45
1778658145.086757,599617106787761638,146,45
1778658145.094449,599617106795453945,146,60
1778658145.102141,599617106803146252,146,84
1778658145.109833,599617106810838559,146,105
1778658145.117526,599617106818530866,146,153
1778658145.125218,599617106826223173,146,180
1778658145.132910,599617106833915480,146,141
1778658145.140603,599617106841607787,146,117
1778658145.148295,599617106849300094,146,137
1778658145.155988,599617106856992401,146,132
1778658145.163680,599617106864684708,146,115
1778658145.171372,599617106872377015,146,91
1778658145.179064,599617106880069322,146,36
1778658145.186757,599617106887761629,146,-14
1778658145.194449,599617106895453936,146,-50
1778658145.202141,599617106903146243,146,-120
1778658145.209834,599617106910838550,146,-165
1778658145.217526,599617106918530857,146,-161
1778658145.225218,599617106926223164,146,-180
1778658145.232910,599617106933915471,146,-216
1778658145.240603,599617106941607778,146,-209
1778658145.248295,599617106949300085,146,-192
1778658145.255987,599617106956992392,146,-206
1778658145.263680,599617106964684699,146,-204
1778658145.271372,599617106972377006,146,-199
1778658145.279064,599617106980069313,146,-218
1778658145.286757,599617106987761620,146,-199
1778658145.294449,599617106995453927,146,-161
1778658145.302141,599617107003146234,146,-153
1778658145.309834,599617107010838541,146,-163
1778658145.317526,599617107018530848,146,-180
1778658145.325218,599617107026223155,146,-165
1778658145.332911,599617107033915462,146,-134
1778658145.340603,599617107041607769,146,-149
1778658145.348295,599617107049300076,146,-168
1778658145.355987,599617107056992383,146,-151
1778658145.363680,599617107064684690,146,-134
1778658145.371372,599617107072376997,146,-144
1778658145.379064,599617107080069304,146,-151
1778658145.386757,599617107087761611,146,-132
1778658145.394449,599617107095453918,146,-120
1778658145.402141,599617107103146225,146,-127
1778658145.409834,599617107110838532,146,-132
1778658145.417526,599617107118530839,146,-137
1778658145.425218,599617107126223146,146,-151
1778658145.432910,599617107133915453,146,-175
1778658145.440603,599617107141607760,146,-180
1778658145.448295,599617107149300067,146,-141
1778658145.455987,599617107156992374,146,-120
1778658145.463680,599617107164684681,146,-144
1778658145.471372,599617107172376988,146,-153
1778658145.479064,599617107180069295,146,-134
1778658145.486757,599617107187761602,146,-141
1778658145.494449,599617107195453909,146,-163
1778658145.502141,599617107203146216,146,-165
1778658145.509834,599617107210838523,146,-170
1778658145.517526,599617107218530830,146,-185
1778658145.525218,599617107226223137,146,-173
1778658145.532911,599617107233915444,146,-151
1778658145.540603,599617107241607751,146,-149
1778658145.548295,599617107249300058,146,-146
1778658145.555987,599617107256992365,146,-144
1778658145.563680,599617107264684672,146,-149
1778658145.571372,599617107272376979,146,-149
1778658145.559129,599617107279812844,219,-149
1778658145.566822,599617107287505151,219,-146
1778658145.574514,599617107295197458,219,-127
1778658145.582206,599617107302889765,219,-120
1778658145.589899,599617107310582072,219,-132
1778658145.597591,599617107318274379,219,-132
1778658145.605283,599617107325966686,219,-117
1778658145.612976,599617107333658993,219,-134
1778658145.620668,599617107341351300,219,-170
1778658145.628360,599617107349043607,219,-158
1778658145.636053,599617107356735914,219,-132
1778658145.643745,599617107364428221,219,-151
1778658145.651437,599617107372120528,219,-170
1778658145.659129,599617107379812835,219,-165
1778658145.666822,599617107387505142,219,-153
1778658145.674514,599617107395197449,219,-137
1778658145.682206,599617107402889756,219,-132
1778658145.689899,599617107410582063,219,-139
1778658145.697591,599617107418274370,219,-146
1778658145.705283,599617107425966677,219,-108
1778658145.712976,599617107433658984,219,21
1778658145.720668,599617107441351291,219,295
1778658145.728360,599617107449043598,219,606
1778658145.736053,599617107456735905,219,517
1778658145.743745,599617107464428212,219,-86
1778658145.751437,599617107472120519,219,-536
1778658145.759130,599617107479812826,219,-464
1778658145.766822,599617107487505133,219,-278
1778658145.774514,599617107495197440,219,-202
1778658145.782206,599617107502889747,219,-144
1778658145.789899,599617107510582054,219,-110
1778658145.797591,599617107518274361,219,-120
1778658145.805283,599617107525966668,219,-127
1778658145.812976,599617107533658975,219,-110
1778658145.820668,599617107541351282,219,-91
1778658145.828360,599617107549043589,219,-84
1778658145.836052,599617107556735896,219,-79
1778658145.843745,599617107564428203,219,-48
1778658145.851437,599617107572120510,219,-16
1778658145.859129,599617107579812817,219,-50
1778658145.866822,599617107587505124,219,-105
1778658145.874514,599617107595197431,219,-88
1778658145.882206,599617107602889738,219,-36
1778658145.889899,599617107610582045,219,-26
1778658145.897591,599617107618274352,219,-50
1778658145.905283,599617107625966659,219,-52
1778658145.912976,599617107633658966,219,0
1778658145.920668,599617107641351273,219,57
1778658145.928360,599617107649043580,219,26
1778658145.936053,599617107656735887,219,-26
1778658145.943745,599617107664428194,219,26
1778658145.951437,599617107672120501,219,98
1778658145.959129,599617107679812808,219,86
1778658145.966822,599617107687505115,219,57
1778658145.974514,599617107695197422,219,79
1778658145.982206,599617107702889729,219,139
1778658145.989899,599617107710582036,219,202
1778658145.997591,599617107718274343,219,206
1778658146.005283,599617107725966650,219,125
1778658146.012976,599617107733658957,219,60
1778658146.020668,599617107741351264,219,132
1778658146.028360,599617107749043571,219,149
1778658146.036052,599617107756735878,219,-16
1778658146.043745,599617107764428185,219,-79
1778658146.051437,599617107772120492,219,-40
1778658146.059129,599617107779812799,219,-153
1778658146.066822,599617107787505106,219,-206
1778658146.074514,599617107795197413,219,-81
1778658146.082206,599617107802889720,219,-91
1778658146.089899,599617107810582027,219,-226
1778658146.097591,599617107818274334,219,-245
1778658146.105283,599617107825966641,219,-238
1778658146.112976,599617107833658948,219,-276
1778658146.142635,599617107841094813,292,-254
1778658146.150328,599617107848787120,292,-173
1778658146.158020,599617107856479427,292,-129
1778658146.165712,599617107864171734,292,-182
1778658146.173404,599617107871864041,292,-228
1778658146.181097,599617107879556348,292,-185
1778658146.188789,599617107887248655,292,-156
1778658146.196481,599617107894940962,292,-177
1778658146.204174,599617107902633269,292,-192
1778658146.211866,599617107910325576,292,-187
1778658146.219558,599617107918017883,292,-170
1778658146.227251,599617107925710190,292,-127
1778658146.234943,599617107933402497,292,-91
1778658146.242635,599617107941094804,292,-129
1778658146.250328,599617107948787111,292,-163
1778658146.258020,599617107956479418,292,-127
1778658146.265712,599617107964171725,292,-122
1778658146.273405,599617107971864032,292,-170
1778658146.281097,599617107979556339,292,-177
1778658146.288789,599617107987248646,292,-129
1778658146.296481,599617107994940953,292,-101
1778658146.304174,599617108002633260,292,-146
1778658146.311866,599617108010325567,292,-199
1778658146.319558,599617108018017874,292,-192
1778658146.327251,599617108025710181,292,-170
1778658146.334943,599617108033402488,292,-173
1778658146.342635,599617108041094795,292,-177
1778658146.350328,599617108048787102,292,-173
1778658146.358020,599617108056479409,292,-161
1778658146.365712,599617108064171716,292,-151
1778658146.373405,599617108071864023,292,-149
1778658146.381097,599617108079556330,292,-129
1778658146.388789,599617108087248637,292,-113
1778658146.396482,599617108094940944,292,-156
1778658146.404174,599617108102633251,292,-197
1778658146.411866,599617108110325558,292,-168
1778658146.419558,599617108118017865,292,-153
1778658146.427251,599617108125710172,292,-175
1778658146.434943,599617108133402479,292,-158
1778658146.442635,599617108141094786,292,-149
1778658146.450328,599617108148787093,292,-168
1778658146.458020,599617108156479400,292,-165
1778658146.465712,599617108164171707,292,-168
1778658146.473405,599617108171864014,292,-182
1778658146.481097,599617108179556321,292,-170
1778658146.488789,599617108187248628,292,-158
1778658146.496481,599617108194940935,292,-168
1778658146.504174,599617108202633242,292,-170
1778658146.511866,599617108210325549,292,-151
1778658146.519558,599617108218017856,292,-146
1778658146.527251,599617108225710163,292,-170
1778658146.534943,599617108233402470,292,-170
1778658146.542635,599617108241094777,292,-125
1778658146.550328,599617108248787084,292,-115
1778658146.558020,599617108256479391,292,-163
1778658146.565712,599617108264171698,292,-177
1778658146.573405,599617108271864005,292,-161
1778658146.581097,599617108279556312,292,-168
1778658146.588789,599617108287248619,292,-180
1778658146.596482,599617108294940926,292,-189
1778658146.604174,599617108302633233,292,-204
1778658146.611866,599617108310325540,292,-197
1778658146.619558,599617108318017847,292,-165
1778658146.627251,599617108325710154,292,-146
1778658146.634943,599617108333402461,292,-139
1778658146.642635,599617108341094768,292,-137
1778658146.650328,599617108348787075,292,-182
1778658146.658020,599617108356479382,292,-266
1778658146.665712,599617108364171689,292,-262
1778658146.673404,599617108371863996,292,-161
1778658146.681097,599617108379556303,292,-74
1778658146.688789,599617108387248610,292,50
1778658146.696481,599617108394940917,292,331
1778658146.681967,599617108402407304,365,569
1778658146.689659,599617108410099611,365,322
1778658146.697351,599617108417791918,365,-262
1778658146.705043,599617108425484225,365,-512
1778658146.712736,599617108433176532,365,-377
1778658146.720428,599617108440868839,365,-264
1778658146.728120,599617108448561146,365,-240
1778658146.735813,599617108456253453,365,-226
1778658146.743505,599617108463945760,365,-206
1778658146.751197,599617108471638067,365,-180
1778658146.758890,599617108479330374,365,-161
1778658146.766582,599617108487022681,365,-153
1778658146.774274,599617108494714988,365,-137
1778658146.781966,599617108502407295,365,-137
1778658146.789659,599617108510099602,365,-158
1778658146.797351,599617108517791909,365,-120
1778658146.805043,599617108525484216,365,-69
1778658146.812736,599617108533176523,365,-108
1778658146.820428,599617108540868830,365,-156
1778658146.828120,599617108548561137,365,-151
1778658146.835813,599617108556253444,365,-132
1778658146.843505,599617108563945751,365,-105
1778658146.851197,599617108571638058,365,-72
1778658146.858890,599617108579330365,365,-57
1778658146.866582,599617108587022672,365,-64
1778658146.874274,599617108594714979,365,-62
1778658146.881967,599617108602407286,365,-50
1778658146.889659,599617108610099593,365,-26
1778658146.897351,599617108617791900,365,9
1778658146.905043,599617108625484207,365,0
1778658146.912736,599617108633176514,365,-24
1778658146.920428,599617108640868821,365,16
1778658146.928120,599617108648561128,365,60
1778658146.935813,599617108656253435,365,69
1778658146.943505,599617108663945742,365,98
1778658146.951197,599617108671638049,365,105
1778658146.958889,599617108679330356,365,64
1778658146.966582,599617108687022663,365,57
1778658146.974274,599617108694714970,365,50
1778658146.981966,599617108702407277,365,-21
1778658146.989659,599617108710099584,365,-67
1778658146.997351,599617108717791891,365,-72
1778658147.005044,599617108725484198,365,-103
1778658147.012736,599617108733176505,365,-158
1778658147.020428,599617108740868812,365,-194
1778658147.028120,599617108748561119,365,-209
1778658147.035813,599617108756253426,365,-214
1778658147.043505,599617108763945733,365,-228
1778658147.051197,599617108771638040,365,-238
1778658147.058890,599617108779330347,365,-230
1778658147.066582,599617108787022654,365,-216
1778658147.074274,599617108794714961,365,-192
1778658147.081966,599617108802407268,365,-173
1778658147.089659,599617108810099575,365,-194
1778658147.097351,599617108817791882,365,-223
1778658147.105043,599617108825484189,365,-221
1778658147.112736,599617108833176496,365,-214
1778658147.120428,599617108840868803,365,-199
1778658147.128120,599617108848561110,365,-177
1778658147.135813,599617108856253417,365,-170
1778658147.143505,599617108863945724,365,-161
1778658147.151197,599617108871638031,365,-149
1778658147.158890,599617108879330338,365,-129
1778658147.166582,599617108887022645,365,-146
1778658147.174274,599617108894714952,365,-182
1778658147.181967,599617108902407259,365,-151
1778658147.189659,599617108910099566,365,-127
1778658147.197351,599617108917791873,365,-175
1778658147.205043,599617108925484180,365,-180
1778658147.212736,599617108933176487,365,-153
1778658147.220428,599617108940868794,365,-158
1778658147.228120,599617108948561101,365,-151
1778658147.235813,599617108956253408,365,-125
1778658147.266249,599617108963663842,438,-113
1778658147.273942,599617108971356149,438,-134
1778658147.281634,599617108979048456,438,-165
1778658147.289326,599617108986740763,438,-173
1778658147.297018,599617108994433070,438,-170
1778658147.304711,599617109002125377,438,-144
1778658147.312403,599617109009817684,438,-125
1778658147.320095,599617109017509991,438,-144
1778658147.327788,599617109025202298,438,-153
1778658147.335480,599617109032894605,438,-144
1778658147.343172,599617109040586912,438,-139
1778658147.350865,599617109048279219,438,-122
1778658147.358557,599617109055971526,438,-103
1778658147.366249,599617109063663833,438,-117
1778658147.373941,599617109071356140,438,-149
1778658147.381634,599617109079048447,438,-158
1778658147.389326,599617109086740754,438,-137
1778658147.397018,599617109094433061,438,-110
1778658147.404711,599617109102125368,438,-103
1778658147.412403,599617109109817675,438,-113
1778658147.420095,599617109117509982,438,-115
1778658147.427788,599617109125202289,438,-105
1778658147.435480,599617109132894596,438,-110
1778658147.443172,599617109140586903,438,-115
1778658147.450865,599617109148279210,438,-101
1778658147.458557,599617109155971517,438,-91
1778658147.466249,599617109163663824,438,-93
1778658147.473942,599617109171356131,438,-98
1778658147.481634,599617109179048438,438,-101
1778658147.489326,599617109186740745,438,-88
1778658147.497018,599617109194433052,438,-79
1778658147.504711,599617109202125359,438,-79
1778658147.512403,599617109209817666,438,-67
1778658147.520095,599617109217509973,438,-64
1778658147.527788,599617109225202280,438,-88
1778658147.535480,599617109232894587,438,-98
1778658147.543172,599617109240586894,438,-84
1778658147.550864,599617109248279201,438,-79
1778658147.558557,599617109255971508,438,-88
1778658147.566249,599617109263663815,438,-88
1778658147.573941,599617109271356122,438,-81
1778658147.581634,599617109279048429,438,-86
1778658147.589326,599617109286740736,438,-91
1778658147.597018,599617109294433043,438,-88
1778658147.604711,599617109302125350,438,-98
1778658147.612403,599617109309817657,438,-110
1778658147.620095,599617109317509964,438,-93
1778658147.627788,599617109325202271,438,-55
1778658147.635480,599617109332894578,438,12
1778658147.643172,599617109340586885,438,204
1778658147.650865,599617109348279192,438,529
1778658147.658557,599617109355971499,438,656
1778658147.666249,599617109363663806,438,223
1778658147.673941,599617109371356113,438,-360
1778658147.681634,599617109379048420,438,-444
1778658147.689326,599617109386740727,438,-233
1778658147.697018,599617109394433034,438,-158
1778658147.704711,599617109402125341,438,-149
1778658147.712403,599617109409817648,438,-115
1778658147.720095,599617109417509955,438,-103
1778658147.727787,599617109425202262,438,-98
1778658147.735480,599617109432894569,438,-86
1778658147.743172,599617109440586876,438,-81
1778658147.750865,599617109448279183,438,-74
1778658147.758557,599617109455971490,438,-67
1778658147.766249,599617109463663797,438,-74
1778658147.773942,599617109471356104,438,-64
1778658147.781634,599617109479048411,438,-43
1778658147.789326,599617109486740718,438,-38
1778658147.797018,599617109494433025,438,-36
1778658147.804711,599617109502125332,438,-21
1778658147.812403,599617109509817639,438,-26
1778658147.820095,599617109517509946,438,-36
1778658147.852880,599617109524971242,511,-21
1778658147.860572,599617109532663549,511,-16
1778658147.868265,599617109540355856,511,-24
1778658147.875957,599617109548048163,511,4
1778658147.883649,599617109555740470,511,36
1778658147.891341,599617109563432777,511,45
1778658147.899034,599617109571125084,511,60
1778658147.906726,599617109578817391,511,74
1778658147.914418,599617109586509698,511,79
1778658147.922111,599617109594202005,511,96
1778658147.929803,599617109601894312,511,125
1778658147.937495,599617109609586619,511,139
1778658147.945188,599617109617278926,511,139
1778658147.952880,599617109624971233,511,149
1778658147.960572,599617109632663540,511,151
1778658147.968265,599617109640355847,511,125
1778658147.975957,599617109648048154,511,74
1778658147.983649,599617109655740461,511,36
1778658147.991342,599617109663432768,511,19
1778658147.999034,599617109671125075,511,-9
1778658148.006726,599617109678817382,511,-76
1778658148.014418,599617109686509689,511,-134
1778658148.022111,599617109694201996,511,-153
1778658148.029803,599617109701894303,511,-156
1778658148.037495,599617109709586610,511,-168
1778658148.045188,599617109717278917,511,-187
1778658148.052880,599617109724971224,511,-202
1778658148.060572,599617109732663531,511,-197
1778658148.068264,599617109740355838,511,-180
1778658148.075957,599617109748048145,511,-170
1778658148.083649,599617109755740452,511,-177
1778658148.091341,599617109763432759,511,-182
1778658148.099034,599617109771125066,511,-180
1778658148.106726,599617109778817373,511,-187
1778658148.114419,599617109786509680,511,-175
1778658148.122111,599617109794201987,511,-139
1778658148.129803,599617109801894294,511,-129
1778658148.137495,599617109809586601,511,-153
1778658148.145188,599617109817278908,511,-161
1778658148.152880,599617109824971215,511,-141
1778658148.160572,599617109832663522,511,-139
1778658148.168265,599617109840355829,511,-141
1778658148.175957,599617109848048136,511,-132
1778658148.183649,599617109855740443,511,-156
1778658148.191341,599617109863432750,511,-165
1778658148.199034,599617109871125057,511,-127
1778658148.206726,599617109878817364,511,-156
1778658148.214418,599617109886509671,511,-177
1778658148.222111,599617109894201978,511,-137
1778658148.229803,599617109901894285,511,-127
1778658148.237495,599617109909586592,511,-93
1778658148.245188,599617109917278899,511,-84
1778658148.252880,599617109924971206,511,-187
1778658148.260572,599617109932663513,511,-189
1778658148.268265,599617109940355820,511,-113
1778658148.275957,599617109948048127,511,-192
1778658148.283649,599617109955740434,511,-250
1778658148.291342,599617109963432741,511,-129
1778658148.299034,599617109971125048,511,-67
1778658148.306726,599617109978817355,511,-132
1778658148.314418,599617109986509662,511,-134
1778658148.322111,599617109994201969,511,-76
1778658148.329803,599617110001894276,511,-79
1778658148.337495,599617110009586583,511,-76
1778658148.345188,599617110017278890,511,-19
1778658148.352880,599617110024971197,511,-28
1778658148.360572,599617110032663504,511,-113
1778658148.368265,599617110040355811,511,-137
1778658148.375957,599617110048048118,511,-67
1778658148.383649,599617110055740425,511,-28
1778658148.391341,599617110063432732,511,-79
1778658148.399034,599617110071125039,511,-115
1778658148.406726,599617110078817346,511,-76
1778658148.392480,599617110086253211,584,-38
1778658148.400172,599617110093945518,584,-52
1778658148.407864,599617110101637825,584,-86
1778658148.415556,599617110109330132,584,-57
1778658148.423249,599617110117022439,584,-16
1778658148.430941,599617110124714746,584,-69
1778658148.438633,599617110132407053,584,-98
1778658148.446326,599617110140099360,584,-62
1778658148.454018,599617110147791667,584,-96
1778658148.461710,599617110155483974,584,-141
1778658148.469403,599617110163176281,584,-98
1778658148.477095,599617110170868588,584,-60
1778658148.484787,599617110178560895,584,-84
1778658148.492480,599617110186253202,584,-108
1778658148.500172,599617110193945509,584,-105
1778658148.507864,599617110201637816,584,-93
1778658148.515557,599617110209330123,584,-62
1778658148.523249,599617110217022430,584,-9
1778658148.530941,599617110224714737,584,177
1778658148.538634,599617110232407044,584,565
1778658148.546326,599617110240099351,584,759
1778658148.554018,599617110247791658,584,327
1778658148.561710,599617110255483965,584,-341
1778658148.569403,599617110263176272,584,-536
1778658148.577095,599617110270868579,584,-322
1778658148.584787,599617110278560886,584,-156
1778658148.592480,599617110286253193,584,-125
1778658148.600172,599617110293945500,584,-115
1778658148.607864,599617110301637807,584,-101
1778658148.615556,599617110309330114,584,-103
1778658148.623249,599617110317022421,584,-93
1778658148.630941,599617110324714728,584,-72
1778658148.638633,599617110332407035,584,-76
1778658148.646326,599617110340099342,584,-93
1778658148.654018,599617110347791649,584,-103
1778658148.661711,599617110355483956,584,-93
1778658148.669403,599617110363176263,584,-60
1778658148.677095,599617110370868570,584,-50
1778658148.684787,599617110378560877,584,-74
1778658148.692480,599617110386253184,584,-57
1778658148.700172,599617110393945491,584,-16
1778658148.707864,599617110401637798,584,-12
1778658148.715557,599617110409330105,584,-31
1778658148.723249,599617110417022412,584,-36
1778658148.730941,599617110424714719,584,-12
1778658148.738633,599617110432407026,584,14
1778658148.746326,599617110440099333,584,26
1778658148.754018,599617110447791640,584,38
1778658148.761710,599617110455483947,584,60
1778658148.769403,599617110463176254,584,76
1778658148.777095,599617110470868561,584,91
1778658148.784787,599617110478560868,584,110
1778658148.792480,599617110486253175,584,134
1778658148.800172,599617110493945482,584,146
1778658148.807864,599617110501637789,584,151
1778658148.815557,599617110509330096,584,149
1778658148.823249,599617110517022403,584,139
1778658148.830941,599617110524714710,584,134
1778658148.838634,599617110532407017,584,110
1778658148.846326,599617110540099324,584,43
1778658148.854018,599617110547791631,584,-7
1778658148.861710,599617110555483938,584,-28
1778658148.869403,599617110563176245,584,-74
1778658148.877095,599617110570868552,584,-132
1778658148.884787,599617110578560859,584,-158
1778658148.892480,599617110586253166,584,-173
1778658148.900172,599617110593945473,584,-192
1778658148.907864,599617110601637780,584,-199
1778658148.915556,599617110609330087,584,-199
1778658148.923249,599617110617022394,584,-204
1778658148.930941,599617110624714701,584,-202
1778658148.938633,599617110632407008,584,-194
1778658148.946326,599617110640099315,584,-192
1778658148.929971,599617110647535180,657,-189
1778658148.937664,599617110655227487,657,-182
1778658148.945356,599617110662919794,657,-180
1778658148.953048,599617110670612101,657,-175
1778658148.960741,599617110678304408,657,-165
1778658148.968433,599617110685996715,657,-156
1778658148.976125,599617110693689022,657,-149
1778658148.983818,599617110701381329,657,-149
1778658148.991510,599617110709073636,657,-149
1778658148.999202,599617110716765943,657,-149
1778658149.006895,599617110724458250,657,-149
1778658149.014587,599617110732150557,657,-146
1778658149.022279,599617110739842864,657,-146
1778658149.029971,599617110747535171,657,-146
1778658149.037664,599617110755227478,657,-146
1778658149.045356,599617110762919785,657,-144
1778658149.053048,599617110770612092,657,-141
1778658149.060741,599617110778304399,657,-144
1778658149.068433,599617110785996706,657,-144
1778658149.076125,599617110793689013,657,-137
1778658149.083817,599617110801381320,657,-129
1778658149.091510,599617110809073627,657,-127
1778658149.099202,599617110816765934,657,-127
1778658149.106894,599617110824458241,657,-125
1778658149.114587,599617110832150548,657,-125
1778658149.122279,599617110839842855,657,-127
1778658149.129972,599617110847535162,657,-127
1778658149.137664,599617110855227469,657,-122
1778658149.145356,599617110862919776,657,-117
1778658149.153048,599617110870612083,657,-117
1778658149.160741,599617110878304390,657,-120
1778658149.168433,599617110885996697,657,-117
1778658149.176125,599617110893689004,657,-115
1778658149.183818,599617110901381311,657,-115
1778658149.191510,599617110909073618,657,-115
1778658149.199202,599617110916765925,657,-113
1778658149.206894,599617110924458232,657,-115
1778658149.214587,599617110932150539,657,-115
1778658149.222279,599617110939842846,657,-113
1778658149.229971,599617110947535153,657,-113
1778658149.237664,599617110955227460,657,-115
1778658149.245356,599617110962919767,657,-108
1778658149.253048,599617110970612074,657,-91
1778658149.260741,599617110978304381,657,-79
1778658149.268433,599617110985996688,657,-81
1778658149.276125,599617110993688995,657,-91
1778658149.283818,599617111001381302,657,-101
1778658149.291510,599617111009073609,657,-105
1778658149.299202,599617111016765916,657,-108
1778658149.306895,599617111024458223,657,-115
1778658149.314587,599617111032150530,657,-115
1778658149.322279,599617111039842837,657,-110
1778658149.329971,599617111047535144,657,-105
1778658149.337664,599617111055227451,657,-108
1778658149.345356,599617111062919758,657,-108
1778658149.353048,599617111070612065,657,-103
1778658149.360741,599617111078304372,657,-101
1778658149.368433,599617111085996679,657,-101
1778658149.376125,599617111093688986,657,-86
1778658149.383818,599617111101381293,657,-24
1778658149.391510,599617111109073600,657,141
1778658149.399202,599617111116765907,657,442
1778658149.406894,599617111124458214,657,658
1778658149.414587,599617111132150521,657,363
1778658149.422279,599617111139842828,657,-271
1778658149.429971,599617111147535135,657,-509
1778658149.437664,599617111155227442,657,-315
1778658149.445356,599617111162919749,657,-180
1778658149.453048,599617111170612056,657,-158
1778658149.460741,599617111178304363,657,-125
1778658149.468433,599617111185996670,657,-113
1778658149.476125,599617111193688977,657,-122
1778658149.483818,599617111201381284,657,-110
1778658149.516716,599617111208817149,730,-96
1778658149.524409,599617111216509456,730,-93
1778658149.532101,599617111224201763,730,-88
1778658149.539793,599617111231894070,730,-84
1778658149.547485,599617111239586377,730,-84
1778658149.555178,599617111247278684,730,-84
1778658149.562870,599617111254970991,730,-81
1778658149.570562,599617111262663298,730,-79
1778658149.578255,599617111270355605,730,-69
1778658149.585947,599617111278047912,730,-64
1778658149.593639,599617111285740219,730,-55
1778658149.601332,599617111293432526,730,-48
1778658149.609024,599617111301124833,730,-40
1778658149.616716,599617111308817140,730,-33
1778658149.624408,599617111316509447,730,-24
1778658149.632101,599617111324201754,730,-12
1778658149.639793,599617111331894061,730,2
1778658149.647485,599617111339586368,730,19
1778658149.655178,599617111347278675,730,43
1778658149.662870,599617111354970982,730,60
1778658149.670562,599617111362663289,730,72
1778658149.678255,599617111370355596,730,91
1778658149.685947,599617111378047903,730,105
1778658149.693639,599617111385740210,730,113
1778658149.701332,599617111393432517,730,113
1778658149.709024,599617111401124824,730,103
1778658149.716716,599617111408817131,730,88
1778658149.724409,599617111416509438,730,69
1778658149.732101,599617111424201745,730,36
1778658149.739793,599617111431894052,730,-7
1778658149.747485,599617111439586359,730,-52
1778658149.755178,599617111447278666,730,-96
1778658149.762870,599617111454970973,730,-132
1778658149.770562,599617111462663280,730,-158
1778658149.778255,599617111470355587,730,-173
1778658149.785947,599617111478047894,730,-187
1778658149.793639,599617111485740201,730,-197
1778658149.801332,599617111493432508,730,-197
1778658149.809024,599617111501124815,730,-189
1778658149.816716,599617111508817122,730,-185
1778658149.824409,599617111516509429,730,-175
1778658149.832101,599617111524201736,730,-168
1778658149.839793,599617111531894043,730,-163
1778658149.847486,599617111539586350,730,-156
1778658149.855178,599617111547278657,730,-146
1778658149.862870,599617111554970964,730,-139
1778658149.870562,599617111562663271,730,-134
1778658149.878255,599617111570355578,730,-127
1778658149.885947,599617111578047885,730,-122
1778658149.893639,599617111585740192,730,-110
1778658149.901332,599617111593432499,730,-103
1778658149.909024,599617111601124806,730,-103
1778658149.916716,599617111608817113,730,-103
1778658149.924408,599617111616509420,730,-108
1778658149.932101,599617111624201727,730,-105
1778658149.939793,599617111631894034,730,-96
1778658149.947485,599617111639586341,730,-91
1778658149.955178,599617111647278648,730,-91
1778658149.962870,599617111654970955,730,-91
1778658149.970562,599617111662663262,730,-96
1778658149.978255,599617111670355569,730,-93
1778658149.985947,599617111678047876,730,-86
1778658149.993639,599617111685740183,730,-86
1778658150.001332,599617111693432490,730,-84
1778658150.009024,599617111701124797,730,-84
1778658150.016716,599617111708817104,730,-86
1778658150.024409,599617111716509411,730,-81
1778658150.032101,599617111724201718,730,-74
1778658150.039793,599617111731894025,730,-79
1778658150.047485,599617111739586332,730,-93
1778658150.055178,599617111747278639,730,-88
1778658150.062870,599617111754970946,730,-76
1778658150.070562,599617111762663253,730,-79
1778658150.056674,599617111770099118,803,-88
1778658150.064367,599617111777791425,803,-86
1778658150.072059,599617111785483732,803,-84
1778658150.079751,599617111793176039,803,-88
1778658150.087444,599617111800868346,803,-86
1778658150.095136,599617111808560653,803,-84
1778658150.102828,599617111816252960,803,-86
1778658150.110521,599617111823945267,803,-86
1778658150.118213,599617111831637574,803,-86
1778658150.125905,599617111839329881,803,-88
1778658150.133598,599617111847022188,803,-79
1778658150.141290,599617111854714495,803,-64
1778658150.148982,599617111862406802,803,-60
1778658150.156674,599617111870099109,803,-60
1778658150.164367,599617111877791416,803,-69
1778658150.172059,599617111885483723,803,-84
1778658150.179751,599617111893176030,803,-84
1778658150.187444,599617111900868337,803,-86
1778658150.195136,599617111908560644,803,-96
1778658150.202828,599617111916252951,803,-101
1778658150.210521,599617111923945258,803,-101
1778658150.218213,599617111931637565,803,-105
1778658150.225905,599617111939329872,803,-103
1778658150.233598,599617111947022179,803,-101
1778658150.241290,599617111954714486,803,-103
1778658150.248982,599617111962406793,803,-105
1778658150.256675,599617111970099100,803,-105
1778658150.264367,599617111977791407,803,-72
1778658150.272059,599617111985483714,803,57
1778658150.279751,599617111993176021,803,336
1778658150.287444,599617112000868328,803,634
1778658150.295136,599617112008560635,803,507
1778658150.302828,599617112016252942,803,-122
1778658150.310521,599617112023945249,803,-541
1778658150.318213,599617112031637556,803,-411
1778658150.325905,599617112039329863,803,-228
1778658150.333597,599617112047022170,803,-204
1778658150.341290,599617112054714477,803,-163
1778658150.348982,599617112062406784,803,-129
1778658150.356674,599617112070099091,803,-141
1778658150.364367,599617112077791398,803,-139
1778658150.372059,599617112085483705,803,-122
1778658150.379751,599617112093176012,803,-120
1778658150.387444,599617112100868319,803,-117
1778658150.395136,599617112108560626,803,-110
1778658150.402828,599617112116252933,803,-108
1778658150.410521,599617112123945240,803,-105
1778658150.418213,599617112131637547,803,-98
1778658150.425905,599617112139329854,803,-93
1778658150.433598,599617112147022161,803,-91
1778658150.441290,599617112154714468,803,-86
1778658150.448982,599617112162406775,803,-79
1778658150.456674,599617112170099082,803,-72
1778658150.464367,599617112177791389,803,-62
1778658150.472059,599617112185483696,803,-52
1778658150.479751,599617112193176003,803,-43
1778658150.487444,599617112200868310,803,-33
1778658150.495136,599617112208560617,803,-16
1778658150.502828,599617112216252924,803,0
1778658150.510521,599617112223945231,803,14
1778658150.518213,599617112231637538,803,33
1778658150.525905,599617112239329845,803,55
1778658150.533597,599617112247022152,803,69
1778658150.541290,599617112254714459,803,79
1778658150.548982,599617112262406766,803,86
1778658150.556674,599617112270099073,803,91
1778658150.564367,599617112277791380,803,86
1778658150.572059,599617112285483687,803,76
1778658150.579751,599617112293175994,803,57
1778658150.587444,599617112300868301,803,26
1778658150.595136,599617112308560608,803,-14
1778658150.602828,599617112316252915,803,-57
1778658150.610521,599617112323945222,803,-96
1778658150.646102,599617112331386178,876,-134
1778658150.653795,599617112339078485,876,-165
1778658150.661487,599617112346770792,876,-185
1778658150.669179,599617112354463099,876,-199
1778658150.676872,599617112362155406,876,-209
1778658150.684564,599617112369847713,876,-211
1778658150.692256,599617112377540020,876,-209
1778658150.699949,599617112385232327,876,-206
1778658150.707641,599617112392924634,876,-204
1778658150.715333,599617112400616941,876,-197
1778658150.723026,599617112408309248,876,-189
1778658150.730718,599617112416001555,876,-185
1778658150.738410,599617112423693862,876,-177
1778658150.746102,599617112431386169,876,-170
1778658150.753795,599617112439078476,876,-165
1778658150.761487,599617112446770783,876,-163
1778658150.769179,599617112454463090,876,-158
1778658150.776872,599617112462155397,876,-156
1778658150.784564,599617112469847704,876,-153
1778658150.792256,599617112477540011,876,-153
1778658150.799948,599617112485232318,876,-153
1778658150.807641,599617112492924625,876,-153
1778658150.815333,599617112500616932,876,-153
1778658150.823025,599617112508309239,876,-153
1778658150.830718,599617112516001546,876,-153
1778658150.838410,599617112523693853,876,-153
1778658150.846102,599617112531386160,876,-153
1778658150.853795,599617112539078467,876,-153
1778658150.861487,599617112546770774,876,-153
1778658150.869179,599617112554463081,876,-153
1778658150.876872,599617112562155388,876,-153
1778658150.884564,599617112569847695,876,-151
1778658150.892256,599617112577540002,876,-151
1778658150.899949,599617112585232309,876,-151
1778658150.907641,599617112592924616,876,-149
1778658150.915333,599617112600616923,876,-149
1778658150.923025,599617112608309230,876,-149
1778658150.930718,599617112616001537,876,-144
1778658150.938410,599617112623693844,876,-144
1778658150.946102,599617112631386151,876,-144
1778658150.953795,599617112639078458,876,-141
1778658150.961487,599617112646770765,876,-139
1778658150.969179,599617112654463072,876,-139
1778658150.976872,599617112662155379,876,-139
1778658150.984564,599617112669847686,876,-139
1778658150.992256,599617112677539993,876,-137
1778658150.999949,599617112685232300,876,-134
1778658151.007641,599617112692924607,876,-132
1778658151.015333,599617112700616914,876,-132
1778658151.023026,599617112708309221,876,-132
1778658151.030718,599617112716001528,876,-129
1778658151.038410,599617112723693835,876,-129
1778658151.046102,599617112731386142,876,-127
1778658151.053795,599617112739078449,876,-127
1778658151.061487,599617112746770756,876,-132
1778658151.069179,599617112754463063,876,-134
1778658151.076872,599617112762155370,876,-132
1778658151.084564,599617112769847677,876,-122
1778658151.092256,599617112777539984,876,-110
1778658151.099949,599617112785232291,876,-98
1778658151.107641,599617112792924598,876,-96
1778658151.115333,599617112800616905,876,-105
1778658151.123025,599617112808309212,876,-115
1778658151.130718,599617112816001519,876,-115
1778658151.138410,599617112823693826,876,-115
1778658151.146102,599617112831386133,876,-122
1778658151.153795,599617112839078440,876,-129
1778658151.161487,599617112846770747,876,-127
1778658151.169179,599617112854463054,876,-125
1778658151.176872,599617112862155361,876,-125
1778658151.184564,599617112869847668,876,-122
1778658151.192256,599617112877539975,876,-120
1778658151.199949,599617112885232282,876,-120
1778658151.228560,599617112892673234,949,-120
1778658151.236252,599617112900365541,949,-108
1778658151.243944,599617112908057848,949,-38
1778658151.251637,599617112915750155,949,149
1778658151.259329,599617112923442462,949,461
1778658151.267021,599617112931134769,949,637
1778658151.274714,599617112938827076,949,278
1778658151.282406,599617112946519383,949,-334
1778658151.290098,599617112954211690,949,-500
1778658151.297791,599617112961903997,949,-288
1778658151.305483,599617112969596304,949,-177
1778658151.313175,599617112977288611,949,-173
1778658151.320867,599617112984980918,949,-141
1778658151.328560,599617112992673225,949,-125
1778658151.336252,599617113000365532,949,-134
1778658151.343944,599617113008057839,949,-127
1778658151.351637,599617113015750146,949,-115
1778658151.359329,599617113023442453,949,-108
1778658151.367021,599617113031134760,949,-96
1778658151.374714,599617113038827067,949,-91
1778658151.382406,599617113046519374,949,-93
1778658151.390098,599617113054211681,949,-86
1778658151.397790,599617113061903988,949,-76
1778658151.405483,599617113069596295,949,-69
1778658151.413175,599617113077288602,949,-67
1778658151.420867,599617113084980909,949,-60
1778658151.428560,599617113092673216,949,-52
1778658151.436252,599617113100365523,949,-45
1778658151.443944,599617113108057830,949,-31
1778658151.451637,599617113115750137,949,-16
1778658151.459329,599617113123442444,949,-12
1778658151.467021,599617113131134751,949,-4
1778658151.474714,599617113138827058,949,14
1778658151.482406,599617113146519365,949,38
1778658151.490098,599617113154211672,949,48
1778658151.497791,599617113161903979,949,60
1778658151.505483,599617113169596286,949,86
1778658151.513175,599617113177288593,949,108
1778658151.520867,599617113184980900,949,120
1778658151.528560,599617113192673207,949,132
1778658151.536252,599617113200365514,949,129
1778658151.543944,599617113208057821,949,122
1778658151.551637,599617113215750128,949,113
1778658151.559329,599617113223442435,949,88
1778658151.567021,599617113231134742,949,52
1778658151.574713,599617113238827049,949,12
1778658151.582406,599617113246519356,949,-31
1778658151.590098,599617113254211663,949,-72
1778658151.597790,599617113261903970,949,-105
1778658151.605483,599617113269596277,949,-137
1778658151.613175,599617113277288584,949,-163
1778658151.620867,599617113284980891,949,-175
1778658151.628560,599617113292673198,949,-177
1778658151.636252,599617113300365505,949,-175
1778658151.643944,599617113308057812,949,-175
1778658151.651637,599617113315750119,949,-177
1778658151.659329,599617113323442426,949,-170
1778658151.667021,599617113331134733,949,-158
1778658151.674714,599617113338827040,949,-161
1778658151.682406,599617113346519347,949,-156
1778658151.690098,599617113354211654,949,-139
1778658151.697790,599617113361903961,949,-137
1778658151.705483,599617113369596268,949,-144
1778658151.713175,599617113377288575,949,-137
1778658151.720867,599617113384980882,949,-125
1778658151.728560,599617113392673189,949,-125
1778658151.736252,599617113400365496,949,-122
1778658151.743944,599617113408057803,949,-117
1778658151.751637,599617113415750110,949,-122
1778658151.759329,599617113423442417,949,-125
1778658151.767021,599617113431134724,949,-120
1778658151.774714,599617113438827031,949,-117
1778658151.782406,599617113446519338,949,-120
1778658151.767874,599617113453960290,1022,-122
1778658151.775567,599617113461652597,1022,-120
1778658151.783259,599617113469344904,1022,-120
1778658151.790951,599617113477037211,1022,-117
1778658151.798644,599617113484729518,1022,-117
1778658151.806336,599617113492421825,1022,-120
1778658151.814028,599617113500114132,1022,-120
1778658151.821721,599617113507806439,1022,-117
1778658151.829413,599617113515498746,1022,-117
1778658151.837105,599617113523191053,1022,-115
1778658151.844798,599617113530883360,1022,-115
1778658151.852490,599617113538575667,1022,-115
1778658151.860182,599617113546267974,1022,-117
1778658151.867874,599617113553960281,1022,-115
1778658151.875567,599617113561652588,1022,-115
1778658151.883259,599617113569344895,1022,-110
1778658151.890951,599617113577037202,1022,-110
1778658151.898644,599617113584729509,1022,-108
1778658151.906336,599617113592421816,1022,-108
1778658151.914028,599617113600114123,1022,-113
1778658151.921721,599617113607806430,1022,-110
1778658151.929413,599617113615498737,1022,-103
1778658151.937105,599617113623191044,1022,-105
1778658151.944798,599617113630883351,1022,-105
1778658151.952490,599617113638575658,1022,-105
1778658151.960182,599617113646267965,1022,-113
1778658151.967875,599617113653960272,1022,-115
1778658151.975567,599617113661652579,1022,-105
1778658151.983259,599617113669344886,1022,-96
1778658151.990951,599617113677037193,1022,-103
1778658151.998644,599617113684729500,1022,-108
1778658152.006336,599617113692421807,1022,-105
1778658152.014028,599617113700114114,1022,-98
1778658152.021721,599617113707806421,1022,-91
1778658152.029413,599617113715498728,1022,-84
1778658152.037105,599617113723191035,1022,-81
1778658152.044797,599617113730883342,1022,-86
1778658152.052490,599617113738575649,1022,-93
1778658152.060182,599617113746267956,1022,-96
1778658152.067874,599617113753960263,1022,-105
1778658152.075567,599617113761652570,1022,-120
1778658152.083259,599617113769344877,1022,-122
1778658152.090951,599617113777037184,1022,-120
1778658152.098644,599617113784729491,1022,-120
1778658152.106336,599617113792421798,1022,-117
1778658152.114028,599617113800114105,1022,-108
1778658152.121721,599617113807806412,1022,-103
1778658152.129413,599617113815498719,1022,-108
1778658152.137105,599617113823191026,1022,-113
1778658152.144798,599617113830883333,1022,-93
1778658152.152490,599617113838575640,1022,-12
1778658152.160182,599617113846267947,1022,202
1778658152.167874,599617113853960254,1022,543
1778658152.175567,599617113861652561,1022,680
1778658152.183259,599617113869344868,1022,226
1778658152.190951,599617113877037175,1022,-411
1778658152.198644,599617113884729482,1022,-512
1778658152.206336,599617113892421789,1022,-274
1778658152.214028,599617113900114096,1022,-182
1778658152.221721,599617113907806403,1022,-168
1778658152.229413,599617113915498710,1022,-122
1778658152.237105,599617113923191017,1022,-113
1778658152.244797,599617113930883324,1022,-122
1778658152.252490,599617113938575631,1022,-103
1778658152.260182,599617113946267938,1022,-88
1778658152.267874,599617113953960245,1022,-93
1778658152.275567,599617113961652552,1022,-91
1778658152.283259,599617113969344859,1022,-81
1778658152.290951,599617113977037166,1022,-76
1778658152.298644,599617113984729473,1022,-74
1778658152.306336,599617113992421780,1022,-67
1778658152.314028,599617114000114087,1022,-57
1778658152.321721,599617114007806394,1022,-50
1778658152.306671,599617114015257516,1095,-48
1778658152.314363,599617114022949823,1095,-43
1778658152.322056,599617114030642130,1095,-33
1778658152.329748,599617114038334437,1095,-21
1778658152.337440,599617114046026744,1095,-9
1778658152.345133,599617114053719051,1095,-2
1778658152.352825,599617114061411358,1095,9
1778658152.360517,599617114069103665,1095,24
1778658152.368210,599617114076795972,1095,45
1778658152.375902,599617114084488279,1095,62
1778658152.383594,599617114092180586,1095,76
1778658152.391287,599617114099872893,1095,93
1778658152.398979,599617114107565200,1095,113
1778658152.406671,599617114115257507,1095,125
1778658152.414363,599617114122949814,1095,125
1778658152.422056,599617114130642121,1095,120
1778658152.429748,599617114138334428,1095,115
1778658152.437440,599617114146026735,1095,101
1778658152.445133,599617114153719042,1095,72
1778658152.452825,599617114161411349,1095,33
1778658152.460517,599617114169103656,1095,-7
1778658152.468210,599617114176795963,1095,-55
1778658152.475902,599617114184488270,1095,-98
1778658152.483594,599617114192180577,1095,-134
1778658152.491287,599617114199872884,1095,-161
1778658152.498979,599617114207565191,1095,-180
1778658152.506671,599617114215257498,1095,-189
1778658152.514364,599617114222949805,1095,-197
1778658152.522056,599617114230642112,1095,-199
1778658152.529748,599617114238334419,1095,-209
1778658152.537440,599617114246026726,1095,-218
1778658152.545133,599617114253719033,1095,-221
1778658152.552825,599617114261411340,1095,-202
1778658152.560517,599617114269103647,1095,-175
1778658152.568210,599617114276795954,1095,-165
1778658152.575902,599617114284488261,1095,-161
1778658152.583594,599617114292180568,1095,-153
1778658152.591286,599617114299872875,1095,-153
1778658152.598979,599617114307565182,1095,-158
1778658152.606671,599617114315257489,1095,-156
1778658152.614363,599617114322949796,1095,-151
1778658152.622056,599617114330642103,1095,-151
1778658152.629748,599617114338334410,1095,-156
1778658152.637440,599617114346026717,1095,-153
1778658152.645133,599617114353719024,1095,-149
1778658152.652825,599617114361411331,1095,-149
1778658152.660517,599617114369103638,1095,-146
1778658152.668210,599617114376795945,1095,-146
1778658152.675902,599617114384488252,1095,-149
1778658152.683594,599617114392180559,1095,-146
1778658152.691287,599617114399872866,1095,-149
1778658152.698979,599617114407565173,1095,-158
1778658152.706671,599617114415257480,1095,-163
1778658152.714363,599617114422949787,1095,-156
1778658152.722056,599617114430642094,1095,-139
1778658152.729748,599617114438334401,1095,-127
1778658152.737440,599617114446026708,1095,-129
1778658152.745133,599617114453719015,1095,-141
1778658152.752825,599617114461411322,1095,-146
1778658152.760517,599617114469103629,1095,-139
1778658152.768209,599617114476795936,1095,-149
1778658152.775902,599617114484488243,1095,-156
1778658152.783594,599617114492180550,1095,-137
1778658152.791286,599617114499872857,1095,-122
1778658152.798979,599617114507565164,1095,-125
1778658152.806671,599617114515257471,1095,-120
1778658152.814363,599617114522949778,1095,-110
1778658152.822056,599617114530642085,1095,-113
1778658152.829748,599617114538334392,1095,-115
1778658152.837440,599617114546026699,1095,-115
1778658152.845133,599617114553719006,1095,-113
1778658152.852825,599617114561411313,1095,-120
1778658152.860517,599617114569103620,1095,-127
1778658152.852197,599617114576539485,1168,-127
1778658152.859890,599617114584231792,1168,-127
1778658152.867582,599617114591924099,1168,-129
1778658152.875274,599617114599616406,1168,-137
1778658152.882967,599617114607308713,1168,-132
1778658152.890659,599617114615001020,1168,-125
1778658152.898351,599617114622693327,1168,-125
1778658152.906044,599617114630385634,1168,-125
1778658152.913736,599617114638077941,1168,-115
1778658152.921428,599617114645770248,1168,-105
1778658152.929121,599617114653462555,1168,-110
1778658152.936813,599617114661154862,1168,-117
1778658152.944505,599617114668847169,1168,-127
1778658152.952197,599617114676539476,1168,-129
1778658152.959890,599617114684231783,1168,-108
1778658152.967582,599617114691924090,1168,-101
1778658152.975274,599617114699616397,1168,-105
1778658152.982967,599617114707308704,1168,-93
1778658152.990659,599617114715001011,1168,-84
1778658152.998351,599617114722693318,1168,-101
1778658153.006043,599617114730385625,1168,-127
1778658153.013736,599617114738077932,1168,-137
1778658153.021428,599617114745770239,1168,-134
1778658153.029120,599617114753462546,1168,-134
1778658153.036813,599617114761154853,1168,-120
1778658153.044505,599617114768847160,1168,-108
1778658153.052197,599617114776539467,1168,-117
1778658153.059890,599617114784231774,1168,-127
1778658153.067582,599617114791924081,1168,-132
1778658153.075274,599617114799616388,1168,-141
1778658153.082967,599617114807308695,1168,-129
1778658153.090659,599617114815001002,1168,-36
1778658153.098351,599617114822693309,1168,194
1778658153.106044,599617114830385616,1168,545
1778658153.113736,599617114838077923,1168,673
1778658153.121428,599617114845770230,1168,211
1778658153.129120,599617114853462537,1168,-411
1778658153.136813,599617114861154844,1168,-524
1778658153.144505,599617114868847151,1168,-298
1778658153.152197,599617114876539458,1168,-175
1778658153.159890,599617114884231765,1168,-149
1778658153.167582,599617114891924072,1168,-137
1778658153.175274,599617114899616379,1168,-151
1778658153.182967,599617114907308686,1168,-141
1778658153.190659,599617114915000993,1168,-120
1778658153.198351,599617114922693300,1168,-151
1778658153.206043,599617114930385607,1168,-156
1778658153.213736,599617114938077914,1168,-108
1778658153.221428,599617114945770221,1168,-96
1778658153.229120,599617114953462528,1168,-115
1778658153.236813,599617114961154835,1168,-84
1778658153.244505,599617114968847142,1168,-55
1778658153.252197,599617114976539449,1168,-76
1778658153.259890,599617114984231756,1168,-79
1778658153.267582,599617114991924063,1168,-62
1778658153.275274,599617114999616370,1168,-84
1778658153.282967,599617115007308677,1168,-72
1778658153.290659,599617115015000984,1168,-14
1778658153.298351,599617115022693291,1168,-12
1778658153.306044,599617115030385598,1168,-45
1778658153.313736,599617115038077905,1168,-26
1778658153.321428,599617115045770212,1168,28
1778658153.329120,599617115053462519,1168,69
1778658153.336813,599617115061154826,1168,79
1778658153.344505,599617115068847133,1168,67
1778658153.352197,599617115076539440,1168,69
1778658153.359890,599617115084231747,1168,93
1778658153.367582,599617115091924054,1168,110
1778658153.375274,599617115099616361,1168,127
1778658153.382967,599617115107308668,1168,144
1778658153.390659,599617115115000975,1168,125
1778658153.398351,599617115122693282,1168,101
1778658153.406044,599617115130385589,1168,103
1778658153.433675,599617115137851976,1241,67
1778658153.441367,599617115145544283,1241,4
1778658153.449060,599617115153236590,1241,-40
1778658153.456752,599617115160928897,1241,-81
1778658153.464444,599617115168621204,1241,-127
1778658153.472136,599617115176313511,1241,-161
1778658153.479829,599617115184005818,1241,-177
1778658153.487521,599617115191698125,1241,-165
1778658153.495214,599617115199390432,1241,-158
1778658153.502906,599617115207082739,1241,-185
1778658153.510598,599617115214775046,1241,-202
1778658153.518291,599617115222467353,1241,-194
1778658153.525983,599617115230159660,1241,-202
1778658153.533675,599617115237851967,1241,-197
1778658153.541367,599617115245544274,1241,-173
1778658153.549060,599617115253236581,1241,-168
1778658153.556752,599617115260928888,1241,-144
1778658153.564444,599617115268621195,1241,-132
1778658153.572137,599617115276313502,1241,-165
1778658153.579829,599617115284005809,1241,-170
1778658153.587521,599617115291698116,1241,-153
1778658153.595213,599617115299390423,1241,-173
1778658153.602906,599617115307082730,1241,-175
1778658153.610598,599617115314775037,1241,-156
1778658153.618290,599617115322467344,1241,-137
1778658153.625983,599617115330159651,1241,-139
1778658153.633675,599617115337851958,1241,-163
1778658153.641367,599617115345544265,1241,-149
1778658153.649060,599617115353236572,1241,-103
1778658153.656752,599617115360928879,1241,-129
1778658153.664444,599617115368621186,1241,-175
1778658153.672137,599617115376313493,1241,-144
1778658153.679829,599617115384005800,1241,-125
1778658153.687521,599617115391698107,1241,-168
1778658153.695214,599617115399390414,1241,-170
1778658153.702906,599617115407082721,1241,-117
1778658153.710598,599617115414775028,1241,-120
1778658153.718290,599617115422467335,1241,-170
1778658153.725983,599617115430159642,1241,-120
1778658153.733675,599617115437851949,1241,-43
1778658153.741367,599617115445544256,1241,-103
1778658153.749060,599617115453236563,1241,-161
1778658153.756752,599617115460928870,1241,-120
1778658153.764444,599617115468621177,1241,-134
1778658153.772136,599617115476313484,1241,-180
1778658153.779829,599617115484005791,1241,-113
1778658153.787521,599617115491698098,1241,-52
1778658153.795213,599617115499390405,1241,-93
1778658153.802906,599617115507082712,1241,-132
1778658153.810598,599617115514775019,1241,-117
1778658153.818290,599617115522467326,1241,-98
1778658153.825983,599617115530159633,1241,-120
1778658153.833675,599617115537851940,1241,-137
1778658153.841367,599617115545544247,1241,-110
1778658153.849060,599617115553236554,1241,-86
1778658153.856752,599617115560928861,1241,-88
1778658153.864444,599617115568621168,1241,-101
1778658153.872137,599617115576313475,1241,-129
1778658153.879829,599617115584005782,1241,-137
1778658153.887521,599617115591698089,1241,-96
1778658153.895213,599617115599390396,1241,-88
1778658153.902906,599617115607082703,1241,-125
1778658153.910598,599617115614775010,1241,-115
1778658153.918290,599617115622467317,1241,-88
1778658153.925983,599617115630159624,1241,-110
1778658153.933675,599617115637851931,1241,-122
1778658153.941367,599617115645544238,1241,-101
1778658153.949060,599617115653236545,1241,-91
1778658153.956752,599617115660928852,1241,-67
1778658153.964444,599617115668621159,1241,-60
1778658153.972136,599617115676313466,1241,-132
1778658153.979829,599617115684005773,1241,-146
1778658153.987521,599617115691698080,1241,-86
1778658154.016497,599617115699133945,1314,-86
1778658154.024189,599617115706826252,1314,-115
1778658154.031882,599617115714518559,1314,-108
1778658154.039574,599617115722210866,1314,-110
1778658154.047266,599617115729903173,1314,-122
1778658154.054959,599617115737595480,1314,-129
1778658154.062651,599617115745287787,1314,-120
1778658154.070343,599617115752980094,1314,-96
1778658154.078036,599617115760672401,1314,-91
1778658154.085728,599617115768364708,1314,-86
1778658154.093420,599617115776057015,1314,-24
1778658154.101113,599617115783749322,1314,153
1778658154.108805,599617115791441629,1314,505
1778658154.116497,599617115799133936,1314,716
1778658154.124189,599617115806826243,1314,293
1778658154.131882,599617115814518550,1314,-375
1778658154.139574,599617115822210857,1314,-478
1778658154.147266,599617115829903164,1314,-218
1778658154.154959,599617115837595471,1314,-151
1778658154.162651,599617115845287778,1314,-187
1778658154.170343,599617115852980085,1314,-165
1778658154.178035,599617115860672392,1314,-129
1778658154.185728,599617115868364699,1314,-108
1778658154.193420,599617115876057006,1314,-115
1778658154.201113,599617115883749313,1314,-115
1778658154.208805,599617115891441620,1314,-96
1778658154.216497,599617115899133927,1314,-98
1778658154.224190,599617115906826234,1314,-93
1778658154.231882,599617115914518541,1314,-76
1778658154.239574,599617115922210848,1314,-86
1778658154.247266,599617115929903155,1314,-88
1778658154.254959,599617115937595462,1314,-45
1778658154.262651,599617115945287769,1314,-24
1778658154.270343,599617115952980076,1314,-52
1778658154.278036,599617115960672383,1314,-55
1778658154.285728,599617115968364690,1314,-28
1778658154.293420,599617115976056997,1314,-31
1778658154.301112,599617115983749304,1314,-24
1778658154.308805,599617115991441611,1314,4
1778658154.316497,599617115999133918,1314,12
1778658154.324189,599617116006826225,1314,24
1778658154.331882,599617116014518532,1314,55
1778658154.339574,599617116022210839,1314,69
1778658154.347266,599617116029903146,1314,84
1778658154.354959,599617116037595453,1314,91
1778658154.362651,599617116045287760,1314,96
1778658154.370343,599617116052980067,1314,122
1778658154.378036,599617116060672374,1314,146
1778658154.385728,599617116068364681,1314,149
1778658154.393420,599617116076056988,1314,137
1778658154.401113,599617116083749295,1314,117
1778658154.408805,599617116091441602,1314,93
1778658154.416497,599617116099133909,1314,52
1778658154.424189,599617116106826216,1314,0
1778658154.431882,599617116114518523,1314,-57
1778658154.439574,599617116122210830,1314,-108
1778658154.447266,599617116129903137,1314,-139
1778658154.454959,599617116137595444,1314,-165
1778658154.462651,599617116145287751,1314,-187
1778658154.470343,599617116152980058,1314,-192
1778658154.478035,599617116160672365,1314,-192
1778658154.485728,599617116168364672,1314,-202
1778658154.493420,599617116176056979,1314,-206
1778658154.501112,599617116183749286,1314,-197
1778658154.508805,599617116191441593,1314,-187
1778658154.516497,599617116199133900,1314,-192
1778658154.524189,599617116206826207,1314,-197
1778658154.531882,599617116214518514,1314,-185
1778658154.539574,599617116222210821,1314,-175
1778658154.547266,599617116229903128,1314,-170
1778658154.554959,599617116237595435,1314,-165
1778658154.562651,599617116245287742,1314,-161
1778658154.570343,599617116252980049,1314,-153
1778658154.556931,599617116260426088,1387,-149
1778658154.564623,599617116268118395,1387,-151
1778658154.572315,599617116275810702,1387,-161
1778658154.580007,599617116283503009,1387,-153
1778658154.587700,599617116291195316,1387,-146
1778658154.595392,599617116298887623,1387,-156
1778658154.603084,599617116306579930,1387,-153
1778658154.610777,599617116314272237,1387,-149
1778658154.618469,599617116321964544,1387,-163
1778658154.626161,599617116329656851,1387,-163
1778658154.633854,599617116337349158,1387,-139
1778658154.641546,599617116345041465,1387,-134
1778658154.649238,599617116352733772,1387,-158
1778658154.656930,599617116360426079,1387,-161
1778658154.664623,599617116368118386,1387,-137
1778658154.672315,599617116375810693,1387,-132
1778658154.680007,599617116383503000,1387,-144
1778658154.687700,599617116391195307,1387,-139
1778658154.695392,599617116398887614,1387,-129
1778658154.703084,599617116406579921,1387,-129
1778658154.710777,599617116414272228,1387,-132
1778658154.718469,599617116421964535,1387,-134
1778658154.726161,599617116429656842,1387,-146
1778658154.733854,599617116437349149,1387,-141
1778658154.741546,599617116445041456,1387,-110
1778658154.749238,599617116452733763,1387,-110
1778658154.756931,599617116460426070,1387,-129
1778658154.764623,599617116468118377,1387,-113
1778658154.772315,599617116475810684,1387,-108
1778658154.780007,599617116483502991,1387,-122
1778658154.787700,599617116491195298,1387,-122
1778658154.795392,599617116498887605,1387,-122
1778658154.803084,599617116506579912,1387,-125
1778658154.810777,599617116514272219,1387,-113
1778658154.818469,599617116521964526,1387,-108
1778658154.826161,599617116529656833,1387,-117
1778658154.833853,599617116537349140,1387,-108
1778658154.841546,599617116545041447,1387,-88
1778658154.849238,599617116552733754,1387,-101
1778658154.856930,599617116560426061,1387,-110
1778658154.864623,599617116568118368,1387,-101
1778658154.872315,599617116575810675,1387,-103
1778658154.880008,599617116583502982,1387,-105
1778658154.887700,599617116591195289,1387,-103
1778658154.895392,599617116598887596,1387,-115
1778658154.903084,599617116606579903,1387,-115
1778658154.910777,599617116614272210,1387,-113
1778658154.918469,599617116621964517,1387,-113
1778658154.926161,599617116629656824,1387,-88
1778658154.933854,599617116637349131,1387,-57
1778658154.941546,599617116645041438,1387,-60
1778658154.949238,599617116652733745,1387,-76
1778658154.956930,599617116660426052,1387,-84
1778658154.964623,599617116668118359,1387,-88
1778658154.972315,599617116675810666,1387,-96
1778658154.980007,599617116683502973,1387,-96
1778658154.987700,599617116691195280,1387,-96
1778658154.995392,599617116698887587,1387,-108
1778658155.003084,599617116706579894,1387,-117
1778658155.010777,599617116714272201,1387,-115
1778658155.018469,599617116721964508,1387,-105
1778658155.026161,599617116729656815,1387,-98
1778658155.033854,599617116737349122,1387,-110
1778658155.041546,599617116745041429,1387,-105
1778658155.049238,599617116752733736,1387,-88
1778658155.056931,599617116760426043,1387,-79
1778658155.064623,599617116768118350,1387,-12
1778658155.072315,599617116775810657,1387,192
1778658155.080007,599617116783502964,1387,514
1778658155.087700,599617116791195271,1387,632
1778658155.095392,599617116798887578,1387,202
1778658155.103084,599617116806579885,1387,-384
1778658155.110777,599617116814272192,1387,-478
1778658155.141657,599617116821713144,1460,-250
1778658155.149350,599617116829405451,1460,-137
1778658155.157042,599617116837097758,1460,-137
1778658155.164734,599617116844790065,1460,-125
1778658155.172426,599617116852482372,1460,-113
1778658155.180119,599617116860174679,1460,-115
1778658155.187811,599617116867866986,1460,-108
1778658155.195503,599617116875559293,1460,-105
1778658155.203196,599617116883251600,1460,-113
1778658155.210888,599617116890943907,1460,-108
1778658155.218580,599617116898636214,1460,-96
1778658155.226273,599617116906328521,1460,-81
1778658155.233965,599617116914020828,1460,-69
1778658155.241657,599617116921713135,1460,-67
1778658155.249350,599617116929405442,1460,-60
1778658155.257042,599617116937097749,1460,-48
1778658155.264734,599617116944790056,1460,-48
1778658155.272427,599617116952482363,1460,-48
1778658155.280119,599617116960174670,1460,-33
1778658155.287811,599617116967866977,1460,-24
1778658155.295503,599617116975559284,1460,-28
1778658155.303196,599617116983251591,1460,-24
1778658155.310888,599617116990943898,1460,-9
1778658155.318580,599617116998636205,1460,21
1778658155.326273,599617117006328512,1460,64
1778658155.333965,599617117014020819,1460,76
1778658155.341657,599617117021713126,1460,76
1778658155.349350,599617117029405433,1460,103
1778658155.357042,599617117037097740,1460,122
1778658155.364734,599617117044790047,1460,125
1778658155.372427,599617117052482354,1460,129
1778658155.380119,599617117060174661,1460,120
1778658155.387811,599617117067866968,1460,103
1778658155.395504,599617117075559275,1460,108
1778658155.403196,599617117083251582,1460,105
1778658155.410888,599617117090943889,1460,52
1778658155.418580,599617117098636196,1460,-2
1778658155.426273,599617117106328503,1460,-31
1778658155.433965,599617117114020810,1460,-74
1778658155.441657,599617117121713117,1460,-120
1778658155.449350,599617117129405424,1460,-146
1778658155.457042,599617117137097731,1460,-170
1778658155.464734,599617117144790038,1460,-185
1778658155.472427,599617117152482345,1460,-187
1778658155.480119,599617117160174652,1460,-180
1778658155.487811,599617117167866959,1460,-170
1778658155.495503,599617117175559266,1460,-173
1778658155.503196,599617117183251573,1460,-182
1778658155.510888,599617117190943880,1460,-180
1778658155.518580,599617117198636187,1460,-168
1778658155.526273,599617117206328494,1460,-161
1778658155.533965,599617117214020801,1460,-161
1778658155.541657,599617117221713108,1460,-163
1778658155.549350,599617117229405415,1460,-161
1778658155.557042,599617117237097722,1460,-144
1778658155.564734,599617117244790029,1460,-127
1778658155.572427,599617117252482336,1460,-134
1778658155.580119,599617117260174643,1460,-141
1778658155.587811,599617117267866950,1460,-137
1778658155.595504,599617117275559257,1460,-132
1778658155.603196,599617117283251564,1460,-129
1778658155.610888,599617117290943871,1460,-129
1778658155.618580,599617117298636178,1460,-144
1778658155.626273,599617117306328485,1460,-156
1778658155.633965,599617117314020792,1460,-146
1778658155.641657,599617117321713099,1460,-129
1778658155.649350,599617117329405406,1460,-125
1778658155.657042,599617117337097713,1460,-122
1778658155.664734,599617117344790020,1460,-115
1778658155.672426,599617117352482327,1460,-120
1778658155.680119,599617117360174634,1460,-120
1778658155.687811,599617117367866941,1460,-117
1778658155.695503,599617117375559248,1460,-117
1778658155.685655,599617117383010370,1533,-122
1778658155.693348,599617117390702677,1533,-122
1778658155.701040,599617117398394984,1533,-120
1778658155.708732,599617117406087291,1533,-125
1778658155.716424,599617117413779598,1533,-132
1778658155.724117,599617117421471905,1533,-113
1778658155.731809,599617117429164212,1533,-96
1778658155.739501,599617117436856519,1533,-105
1778658155.747194,599617117444548826,1533,-108
1778658155.754886,599617117452241133,1533,-103
1778658155.762578,599617117459933440,1533,-113
1778658155.770271,599617117467625747,1533,-120
1778658155.777963,599617117475318054,1533,-122
1778658155.785655,599617117483010361,1533,-115
1778658155.793348,599617117490702668,1533,-103
1778658155.801040,599617117498394975,1533,-105
1778658155.808732,599617117506087282,1533,-108
1778658155.816425,599617117513779589,1533,-101
1778658155.824117,599617117521471896,1533,-101
1778658155.831809,599617117529164203,1533,-103
1778658155.839501,599617117536856510,1533,-105
1778658155.847194,599617117544548817,1533,-105
1778658155.854886,599617117552241124,1533,-108
1778658155.862578,599617117559933431,1533,-110
1778658155.870271,599617117567625738,1533,-96
1778658155.877963,599617117575318045,1533,-81
1778658155.885655,599617117583010352,1533,-93
1778658155.893348,599617117590702659,1533,-96
1778658155.901040,599617117598394966,1533,-91
1778658155.908732,599617117606087273,1533,-98
1778658155.916425,599617117613779580,1533,-110
1778658155.924117,599617117621471887,1533,-103
1778658155.931809,599617117629164194,1533,-88
1778658155.939502,599617117636856501,1533,-93
1778658155.947194,599617117644548808,1533,-96
1778658155.954886,599617117652241115,1533,-81
1778658155.962578,599617117659933422,1533,-74
1778658155.970271,599617117667625729,1533,-67
1778658155.977963,599617117675318036,1533,-69
1778658155.985655,599617117683010343,1533,-84
1778658155.993348,599617117690702650,1533,-86
1778658156.001040,599617117698394957,1533,-93
1778658156.008732,599617117706087264,1533,-113
1778658156.016425,599617117713779571,1533,-113
1778658156.024117,599617117721471878,1533,-101
1778658156.031809,599617117729164185,1533,-96
1778658156.039501,599617117736856492,1533,-96
1778658156.047194,599617117744548799,1533,-91
1778658156.054886,599617117752241106,1533,-96
1778658156.062578,599617117759933413,1533,-101
1778658156.070271,599617117767625720,1533,-98
1778658156.077963,599617117775318027,1533,-101
1778658156.085655,599617117783010334,1533,-50
1778658156.093348,599617117790702641,1533,125
1778658156.101040,599617117798394948,1533,447
1778658156.108732,599617117806087255,1533,692
1778658156.116425,599617117813779562,1533,396
1778658156.124117,599617117821471869,1533,-281
1778658156.131809,599617117829164176,1533,-541
1778658156.139502,599617117836856483,1533,-324
1778658156.147194,599617117844548790,1533,-185
1778658156.154886,599617117852241097,1533,-170
1778658156.162578,599617117859933404,1533,-120
1778658156.170271,599617117867625711,1533,-96
1778658156.177963,599617117875318018,1533,-110
1778658156.185655,599617117883010325,1533,-108
1778658156.193348,599617117890702632,1533,-88
1778658156.201040,599617117898394939,1533,-74
1778658156.208732,599617117906087246,1533,-64
1778658156.216424,599617117913779553,1533,-60
1778658156.224117,599617117921471860,1533,-60
1778658156.231809,599617117929164167,1533,-57
1778658156.239501,599617117936856474,1533,-55
1778658156.223289,599617117944292339,1606,-38
1778658156.230981,599617117951984646,1606,-21
1778658156.238673,599617117959676953,1606,-28
1778658156.246366,599617117967369260,1606,-31
1778658156.254058,599617117975061567,1606,-16
1778658156.261750,599617117982753874,1606,4
1778658156.269443,599617117990446181,1606,4
1778658156.277135,599617117998138488,1606,7
1778658156.284827,599617118005830795,1606,43
1778658156.292520,599617118013523102,1606,64
1778658156.300212,599617118021215409,1606,62
1778658156.307904,599617118028907716,1606,79
1778658156.315596,599617118036600023,1606,110
1778658156.323289,599617118044292330,1606,141
1778658156.330981,599617118051984637,1606,151
1778658156.338673,599617118059676944,1606,153
1778658156.346366,599617118067369251,1606,177
1778658156.354058,599617118075061558,1606,189
1778658156.361750,599617118082753865,1606,180
1778658156.369443,599617118090446172,1606,163
1778658156.377135,599617118098138479,1606,134
1778658156.384827,599617118105830786,1606,88
1778658156.392519,599617118113523093,1606,45
1778658156.400212,599617118121215400,1606,7
1778658156.407904,599617118128907707,1606,-43
1778658156.415596,599617118136600014,1606,-96
1778658156.423289,599617118144292321,1606,-122
1778658156.430981,599617118151984628,1606,-137
1778658156.438673,599617118159676935,1606,-151
1778658156.446366,599617118167369242,1606,-165
1778658156.454058,599617118175061549,1606,-182
1778658156.461750,599617118182753856,1606,-180
1778658156.469443,599617118190446163,1606,-158
1778658156.477135,599617118198138470,1606,-158
1778658156.484827,599617118205830777,1606,-170
1778658156.492520,599617118213523084,1606,-165
1778658156.500212,599617118221215391,1606,-153
1778658156.507904,599617118228907698,1606,-151
1778658156.515596,599617118236600005,1606,-153
1778658156.523289,599617118244292312,1606,-144
1778658156.530981,599617118251984619,1606,-125
1778658156.538673,599617118259676926,1606,-113
1778658156.546366,599617118267369233,1606,-117
1778658156.554058,599617118275061540,1606,-127
1778658156.561750,599617118282753847,1606,-127
1778658156.569443,599617118290446154,1606,-122
1778658156.577135,599617118298138461,1606,-117
1778658156.584827,599617118305830768,1606,-115
1778658156.592520,599617118313523075,1606,-125
1778658156.600212,599617118321215382,1606,-129
1778658156.607904,599617118328907689,1606,-117
1778658156.615597,599617118336599996,1606,-113
1778658156.623289,599617118344292303,1606,-117
1778658156.630981,599617118351984610,1606,-110
1778658156.638673,599617118359676917,1606,-101
1778658156.646366,599617118367369224,1606,-105
1778658156.654058,599617118375061531,1606,-117
1778658156.661750,599617118382753838,1606,-110
1778658156.669443,599617118390446145,1606,-98
1778658156.677135,599617118398138452,1606,-93
1778658156.684827,599617118405830759,1606,-88
1778658156.692519,599617118413523066,1606,-98
1778658156.700212,599617118421215373,1606,-108
1778658156.707904,599617118428907680,1606,-101
1778658156.715596,599617118436599987,1606,-101
1778658156.723289,599617118444292294,1606,-98
1778658156.730981,599617118451984601,1606,-88
1778658156.738673,599617118459676908,1606,-91
1778658156.746366,599617118467369215,1606,-96
1778658156.754058,599617118475061522,1606,-84
1778658156.761750,599617118482753829,1606,-81
1778658156.769443,599617118490446136,1606,-93
1778658156.777135,599617118498138443,1606,-91
1778658156.809564,599617118505574308,1679,-81
1778658156.817256,599617118513266615,1679,-86
1778658156.824949,599617118520958922,1679,-96
1778658156.832641,599617118528651229,1679,-96
1778658156.840333,599617118536343536,1679,-84
1778658156.848026,599617118544035843,1679,-62
1778658156.855718,599617118551728150,1679,-55
1778658156.863410,599617118559420457,1679,-57
1778658156.871103,599617118567112764,1679,-55
1778658156.878795,599617118574805071,1679,-67
1778658156.886487,599617118582497378,1679,-88
1778658156.894180,599617118590189685,1679,-93
1778658156.901872,599617118597881992,1679,-93
1778658156.909564,599617118605574299,1679,-105
1778658156.917256,599617118613266606,1679,-110
1778658156.924949,599617118620958913,1679,-103
1778658156.932641,599617118628651220,1679,-96
1778658156.940333,599617118636343527,1679,-96
1778658156.948026,599617118644035834,1679,-103
1778658156.955718,599617118651728141,1679,-101
1778658156.963410,599617118659420448,1679,-98
1778658156.971102,599617118667112755,1679,-98
1778658156.978795,599617118674805062,1679,-64
1778658156.986487,599617118682497369,1679,74
1778658156.994179,599617118690189676,1679,375
1778658157.001872,599617118697881983,1679,716
1778658157.009564,599617118705574290,1679,625
1778658157.017256,599617118713266597,1679,-64
1778658157.024949,599617118720958904,1679,-574
1778658157.032641,599617118728651211,1679,-440
1778658157.040333,599617118736343518,1679,-216
1778658157.048026,599617118744035825,1679,-187
1778658157.055718,599617118751728132,1679,-141
1778658157.063410,599617118759420439,1679,-101
1778658157.071103,599617118767112746,1679,-120
1778658157.078795,599617118774805053,1679,-117
1778658157.086487,599617118782497360,1679,-88
1778658157.094179,599617118790189667,1679,-86
1778658157.101872,599617118797881974,1679,-96
1778658157.109564,599617118805574281,1679,-88
1778658157.117256,599617118813266588,1679,-79
1778658157.124949,599617118820958895,1679,-67
1778658157.132641,599617118828651202,1679,-55
1778658157.140333,599617118836343509,1679,-57
1778658157.148026,599617118844035816,1679,-55
1778658157.155718,599617118851728123,1679,-48
1778658157.163410,599617118859420430,1679,-52
1778658157.171103,599617118867112737,1679,-38
1778658157.178795,599617118874805044,1679,-9
1778658157.186487,599617118882497351,1679,-4
1778658157.194180,599617118890189658,1679,-7
1778658157.201872,599617118897881965,1679,4
1778658157.209564,599617118905574272,1679,26
1778658157.217256,599617118913266579,1679,45
1778658157.224949,599617118920958886,1679,72
1778658157.232641,599617118928651193,1679,96
1778658157.240333,599617118936343500,1679,105
1778658157.248026,599617118944035807,1679,132
1778658157.255718,599617118951728114,1679,168
1778658157.263410,599617118959420421,1679,173
1778658157.271102,599617118967112728,1679,170
1778658157.278795,599617118974805035,1679,170
1778658157.286487,599617118982497342,1679,151
1778658157.294179,599617118990189649,1679,120
1778658157.301872,599617118997881956,1679,79
1778658157.309564,599617119005574263,1679,28
1778658157.317256,599617119013266570,1679,-26
1778658157.324949,599617119020958877,1679,-76
1778658157.332641,599617119028651184,1679,-108
1778658157.340333,599617119036343491,1679,-137
1778658157.348026,599617119044035798,1679,-175
1778658157.355718,599617119051728105,1679,-192
1778658157.363410,599617119059420412,1679,-194
1778658157.395284,599617119066886799,1752,-202
1778658157.402977,599617119074579106,1752,-204
1778658157.410669,599617119082271413,1752,-202
1778658157.418361,599617119089963720,1752,-199
1778658157.426053,599617119097656027,1752,-197
1778658157.433746,599617119105348334,1752,-185
1778658157.441438,599617119113040641,1752,-177
1778658157.449130,599617119120732948,1752,-185
1778658157.456823,599617119128425255,1752,-189
1778658157.464515,599617119136117562,1752,-177
1778658157.472207,599617119143809869,1752,-153
1778658157.479900,599617119151502176,1752,-141
1778658157.487592,599617119159194483,1752,-146
1778658157.495284,599617119166886790,1752,-149
1778658157.502976,599617119174579097,1752,-146
1778658157.510669,599617119182271404,1752,-146
1778658157.518361,599617119189963711,1752,-144
1778658157.526053,599617119197656018,1752,-137
1778658157.533746,599617119205348325,1752,-137
1778658157.541438,599617119213040632,1752,-144
1778658157.549130,599617119220732939,1752,-149
1778658157.556823,599617119228425246,1752,-146
1778658157.564515,599617119236117553,1752,-144
1778658157.572207,599617119243809860,1752,-146
1778658157.579900,599617119251502167,1752,-141
1778658157.587592,599617119259194474,1752,-132
1778658157.595284,599617119266886781,1752,-129
1778658157.602977,599617119274579088,1752,-132
1778658157.610669,599617119282271395,1752,-132
1778658157.618361,599617119289963702,1752,-132
1778658157.626053,599617119297656009,1752,-129
1778658157.633746,599617119305348316,1752,-129
1778658157.641438,599617119313040623,1752,-139
1778658157.649130,599617119320732930,1752,-141
1778658157.656823,599617119328425237,1752,-139
1778658157.664515,599617119336117544,1752,-137
1778658157.672207,599617119343809851,1752,-129
1778658157.679899,599617119351502158,1752,-122
1778658157.687592,599617119359194465,1752,-122
1778658157.695284,599617119366886772,1752,-117
1778658157.702976,599617119374579079,1752,-115
1778658157.710669,599617119382271386,1752,-117
1778658157.718361,599617119389963693,1752,-115
1778658157.726053,599617119397656000,1752,-117
1778658157.733746,599617119405348307,1752,-115
1778658157.741438,599617119413040614,1752,-110
1778658157.749130,599617119420732921,1752,-110
1778658157.756823,599617119428425228,1752,-108
1778658157.764515,599617119436117535,1752,-117
1778658157.772207,599617119443809842,1752,-122
1778658157.779900,599617119451502149,1752,-113
1778658157.787592,599617119459194456,1752,-103
1778658157.795284,599617119466886763,1752,-105
1778658157.802976,599617119474579070,1752,-108
1778658157.810669,599617119482271377,1752,-96
1778658157.818361,599617119489963684,1752,-79
1778658157.826053,599617119497655991,1752,-74
1778658157.833746,599617119505348298,1752,-81
1778658157.841438,599617119513040605,1752,-91
1778658157.849130,599617119520732912,1752,-96
1778658157.856822,599617119528425219,1752,-105
1778658157.864515,599617119536117526,1752,-115
1778658157.872207,599617119543809833,1752,-120
1778658157.879900,599617119551502140,1752,-117
1778658157.887592,599617119559194447,1752,-115
1778658157.895284,599617119566886754,1752,-110
1778658157.902977,599617119574579061,1752,-110
1778658157.910669,599617119582271368,1752,-108
1778658157.918361,599617119589963675,1752,-101
1778658157.926053,599617119597655982,1752,-108
1778658157.933746,599617119605348289,1752,-117
1778658157.941438,599617119613040596,1752,-98
1778658157.949130,599617119620732903,1752,-19
1778658157.931997,599617119628168768,1825,189
1778658157.939689,599617119635861075,1825,548
1778658157.947381,599617119643553382,1825,755
1778658157.955073,599617119651245689,1825,353
1778658157.962766,599617119658937996,1825,-348
1778658157.970458,599617119666630303,1825,-548
1778658157.978150,599617119674322610,1825,-307
1778658157.985843,599617119682014917,1825,-182
1778658157.993535,599617119689707224,1825,-175
1778658158.001227,599617119697399531,1825,-134
1778658158.008920,599617119705091838,1825,-115
1778658158.016612,599617119712784145,1825,-129
1778658158.024304,599617119720476452,1825,-122
1778658158.031996,599617119728168759,1825,-105
1778658158.039689,599617119735861066,1825,-101
1778658158.047381,599617119743553373,1825,-93
1778658158.055073,599617119751245680,1825,-84
1778658158.062766,599617119758937987,1825,-84
1778658158.070458,599617119766630294,1825,-81
1778658158.078151,599617119774322601,1825,-72
1778658158.085843,599617119782014908,1825,-64
1778658158.093535,599617119789707215,1825,-62
1778658158.101227,599617119797399522,1825,-57
1778658158.108920,599617119805091829,1825,-48
1778658158.116612,599617119812784136,1825,-40
1778658158.124304,599617119820476443,1825,-40
1778658158.131997,599617119828168750,1825,-21
1778658158.139689,599617119835861057,1825,0
1778658158.147381,599617119843553364,1825,4
1778658158.155073,599617119851245671,1825,14
1778658158.162766,599617119858937978,1825,33
1778658158.170458,599617119866630285,1825,55
1778658158.178150,599617119874322592,1825,72
1778658158.185843,599617119882014899,1825,93
1778658158.193535,599617119889707206,1825,113
1778658158.201227,599617119897399513,1825,125
1778658158.208920,599617119905091820,1825,132
1778658158.216612,599617119912784127,1825,134
1778658158.224304,599617119920476434,1825,132
1778658158.231997,599617119928168741,1825,122
1778658158.239689,599617119935861048,1825,84
1778658158.247381,599617119943553355,1825,40
1778658158.255074,599617119951245662,1825,0
1778658158.262766,599617119958937969,1825,-57
1778658158.270458,599617119966630276,1825,-108
1778658158.278150,599617119974322583,1825,-134
1778658158.285843,599617119982014890,1825,-161
1778658158.293535,599617119989707197,1825,-192
1778658158.301227,599617119997399504,1825,-197
1778658158.308920,599617120005091811,1825,-189
1778658158.316612,599617120012784118,1825,-199
1778658158.324304,599617120020476425,1825,-206
1778658158.331996,599617120028168732,1825,-204
1778658158.339689,599617120035861039,1825,-204
1778658158.347381,599617120043553346,1825,-199
1778658158.355073,599617120051245653,1825,-192
1778658158.362766,599617120058937960,1825,-189
1778658158.370458,599617120066630267,1825,-185
1778658158.378150,599617120074322574,1825,-175
1778658158.385843,599617120082014881,1825,-168
1778658158.393535,599617120089707188,1825,-158
1778658158.401227,599617120097399495,1825,-151
1778658158.408920,599617120105091802,1825,-151
1778658158.416612,599617120112784109,1825,-151
1778658158.424304,599617120120476416,1825,-153
1778658158.431997,599617120128168723,1825,-151
1778658158.439689,599617120135861030,1825,-149
1778658158.447381,599617120143553337,1825,-146
1778658158.455073,599617120151245644,1825,-146
1778658158.462766,599617120158937951,1825,-149
1778658158.470458,599617120166630258,1825,-151
1778658158.478150,599617120174322565,1825,-151
1778658158.485843,599617120182014872,1825,-153
1778658158.516834,599617120189465998,1898,-153
1778658158.524526,599617120197158305,1898,-156
1778658158.532219,599617120204850612,1898,-151
1778658158.539911,599617120212542919,1898,-149
1778658158.547603,599617120220235226,1898,-153
1778658158.555295,599617120227927533,1898,-151
1778658158.562988,599617120235619840,1898,-149
1778658158.570680,599617120243312147,1898,-151
1778658158.578372,599617120251004454,1898,-156
1778658158.586065,599617120258696761,1898,-156
1778658158.593757,599617120266389068,1898,-153
1778658158.601449,599617120274081375,1898,-156
1778658158.609142,599617120281773682,1898,-156
1778658158.616834,599617120289465989,1898,-156
1778658158.624526,599617120297158296,1898,-161
1778658158.632219,599617120304850603,1898,-158
1778658158.639911,599617120312542910,1898,-146
1778658158.647603,599617120320235217,1898,-149
1778658158.655296,599617120327927524,1898,-158
1778658158.662988,599617120335619831,1898,-156
1778658158.670680,599617120343312138,1898,-144
1778658158.678372,599617120351004445,1898,-141
1778658158.686065,599617120358696752,1898,-146
1778658158.693757,599617120366389059,1898,-144
1778658158.701449,599617120374081366,1898,-144
1778658158.709142,599617120381773673,1898,-144
1778658158.716834,599617120389465980,1898,-144
1778658158.724526,599617120397158287,1898,-144
1778658158.732219,599617120404850594,1898,-141
1778658158.739911,599617120412542901,1898,-139
1778658158.747603,599617120420235208,1898,-137
1778658158.755296,599617120427927515,1898,-134
1778658158.762988,599617120435619822,1898,-134
1778658158.770680,599617120443312129,1898,-134
1778658158.778373,599617120451004436,1898,-137
1778658158.786065,599617120458696743,1898,-141
1778658158.793757,599617120466389050,1898,-129
1778658158.801449,599617120474081357,1898,-127
1778658158.809142,599617120481773664,1898,-137
1778658158.816834,599617120489465971,1898,-134
1778658158.824526,599617120497158278,1898,-125
1778658158.832219,599617120504850585,1898,-113
1778658158.839911,599617120512542892,1898,-96
1778658158.847603,599617120520235199,1898,-93
1778658158.855295,599617120527927506,1898,-105
1778658158.862988,599617120535619813,1898,-113
1778658158.870680,599617120543312120,1898,-117
1778658158.878372,599617120551004427,1898,-120
1778658158.886065,599617120558696734,1898,-127
1778658158.893757,599617120566389041,1898,-129
1778658158.901449,599617120574081348,1898,-125
1778658158.909142,599617120581773655,1898,-127
1778658158.916834,599617120589465962,1898,-129
1778658158.924526,599617120597158269,1898,-127
1778658158.932219,599617120604850576,1898,-122
1778658158.939911,599617120612542883,1898,-120
1778658158.947603,599617120620235190,1898,-120
1778658158.955296,599617120627927497,1898,-113
1778658158.962988,599617120635619804,1898,-69
1778658158.970680,599617120643312111,1898,86
1778658158.978372,599617120651004418,1898,399
1778658158.986065,599617120658696725,1898,697
1778658158.993757,599617120666389032,1898,548
1778658159.001449,599617120674081339,1898,-98
1778658159.009142,599617120681773646,1898,-531
1778658159.016834,599617120689465953,1898,-394
1778658159.024526,599617120697158260,1898,-175
1778658159.032219,599617120704850567,1898,-161
1778658159.039911,599617120712542874,1898,-163
1778658159.047603,599617120720235181,1898,-129
1778658159.055295,599617120727927488,1898,-129
1778658159.062988,599617120735619795,1898,-137
1778658159.070680,599617120743312102,1898,-122
1778658159.056928,599617120750753054,1971,-113
1778658159.064620,599617120758445361,1971,-115
1778658159.072313,599617120766137668,1971,-108
1778658159.080005,599617120773829975,1971,-98
1778658159.087697,599617120781522282,1971,-101
1778658159.095389,599617120789214589,1971,-96
1778658159.103082,599617120796906896,1971,-86
1778658159.110774,599617120804599203,1971,-72
1778658159.118466,599617120812291510,1971,-60
1778658159.126159,599617120819983817,1971,-55
1778658159.133851,599617120827676124,1971,-52
1778658159.141543,599617120835368431,1971,-52
1778658159.149235,599617120843060738,1971,-45
1778658159.156928,599617120850753045,1971,-33
1778658159.164620,599617120858445352,1971,-21
1778658159.172312,599617120866137659,1971,-7
1778658159.180005,599617120873829966,1971,19
1778658159.187697,599617120881522273,1971,40
1778658159.195390,599617120889214580,1971,50
1778658159.203082,599617120896906887,1971,67
1778658159.210774,599617120904599194,1971,98
1778658159.218466,599617120912291501,1971,117
1778658159.226159,599617120919983808,1971,122
1778658159.233851,599617120927676115,1971,125
1778658159.241543,599617120935368422,1971,122
1778658159.249236,599617120943060729,1971,108
1778658159.256928,599617120950753036,1971,86
1778658159.264620,599617120958445343,1971,52
1778658159.272312,599617120966137650,1971,7
1778658159.280005,599617120973829957,1971,-45
1778658159.287697,599617120981522264,1971,-84
1778658159.295389,599617120989214571,1971,-120
1778658159.303082,599617120996906878,1971,-156
1778658159.310774,599617121004599185,1971,-182
1778658159.318466,599617121012291492,1971,-199
1778658159.326159,599617121019983799,1971,-211
1778658159.333851,599617121027676106,1971,-214
1778658159.341543,599617121035368413,1971,-216
1778658159.349236,599617121043060720,1971,-214
1778658159.356928,599617121050753027,1971,-206
1778658159.364620,599617121058445334,1971,-204
1778658159.372313,599617121066137641,1971,-199
1778658159.380005,599617121073829948,1971,-189
1778658159.387697,599617121081522255,1971,-185
1778658159.395389,599617121089214562,1971,-175
1778658159.403082,599617121096906869,1971,-170
1778658159.410774,599617121104599176,1971,-170
1778658159.418466,599617121112291483,1971,-163
1778658159.426159,599617121119983790,1971,-161
1778658159.433851,599617121127676097,1971,-161
1778658159.441543,599617121135368404,1971,-158
1778658159.449236,599617121143060711,1971,-153
1778658159.456928,599617121150753018,1971,-149
1778658159.464620,599617121158445325,1971,-151
1778658159.472312,599617121166137632,1971,-144
1778658159.480005,599617121173829939,1971,-139
1778658159.487697,599617121181522246,1971,-144
1778658159.495389,599617121189214553,1971,-146
1778658159.503082,599617121196906860,1971,-146
1778658159.510774,599617121204599167,1971,-144
1778658159.518466,599617121212291474,1971,-139
1778658159.526159,599617121219983781,1971,-141
1778658159.533851,599617121227676088,1971,-139
1778658159.541543,599617121235368395,1971,-132
1778658159.549236,599617121243060702,1971,-129
1778658159.556928,599617121250753009,1971,-129
1778658159.564620,599617121258445316,1971,-132
1778658159.572313,599617121266137623,1971,-129
1778658159.580005,599617121273829930,1971,-122
1778658159.587697,599617121281522237,1971,-122
1778658159.595389,599617121289214544,1971,-122
1778658159.603082,599617121296906851,1971,-122
1778658159.610774,599617121304599158,1971,-122
1778658159.596738,599617121312040110,2044,-120
1778658159.604430,599617121319732417,2044,-120
1778658159.612123,599617121327424724,2044,-117
1778658159.619815,599617121335117031,2044,-120
1778658159.627507,599617121342809338,2044,-122
1778658159.635200,599617121350501645,2044,-117
1778658159.642892,599617121358193952,2044,-113
1778658159.650584,599617121365886259,2044,-110
1778658159.658277,599617121373578566,2044,-113
1778658159.665969,599617121381270873,2044,-117
1778658159.673661,599617121388963180,2044,-117
1778658159.681354,599617121396655487,2044,-115
1778658159.689046,599617121404347794,2044,-103
1778658159.696738,599617121412040101,2044,-101
1778658159.704430,599617121419732408,2044,-110
1778658159.712123,599617121427424715,2044,-113
1778658159.719815,599617121435117022,2044,-113
1778658159.727507,599617121442809329,2044,-113
1778658159.735200,599617121450501636,2044,-108
1778658159.742892,599617121458193943,2044,-105
1778658159.750584,599617121465886250,2044,-108
1778658159.758276,599617121473578557,2044,-108
1778658159.765969,599617121481270864,2044,-108
1778658159.773661,599617121488963171,2044,-105
1778658159.781353,599617121496655478,2044,-105
1778658159.789046,599617121504347785,2044,-103
1778658159.796738,599617121512040092,2044,-98
1778658159.804430,599617121519732399,2044,-98
1778658159.812123,599617121527424706,2044,-103
1778658159.819815,599617121535117013,2044,-105
1778658159.827507,599617121542809320,2044,-101
1778658159.835200,599617121550501627,2044,-101
1778658159.842892,599617121558193934,2044,-103
1778658159.850584,599617121565886241,2044,-93
1778658159.858277,599617121573578548,2044,-81
1778658159.865969,599617121581270855,2044,-74
1778658159.873661,599617121588963162,2044,-67
1778658159.881353,599617121596655469,2044,-74
1778658159.889046,599617121604347776,2044,-91
1778658159.896738,599617121612040083,2044,-88
1778658159.904430,599617121619732390,2044,-91
1778658159.912123,599617121627424697,2044,-98
1778658159.919815,599617121635117004,2044,-105
1778658159.927507,599617121642809311,2044,-108
1778658159.935199,599617121650501618,2044,-105
1778658159.942892,599617121658193925,2044,-105
1778658159.950584,599617121665886232,2044,-98
1778658159.958277,599617121673578539,2044,-91
1778658159.965969,599617121681270846,2044,-96
1778658159.973661,599617121688963153,2044,-98
1778658159.981354,599617121696655460,2044,-96
1778658159.989046,599617121704347767,2044,-64
1778658159.996738,599617121712040074,2044,57
1778658160.004430,599617121719732381,2044,334
1778658160.012123,599617121727424688,2044,654
1778658160.019815,599617121735116995,2044,598
1778658160.027507,599617121742809302,2044,26
1778658160.035200,599617121750501609,2044,-454
1778658160.042892,599617121758193916,2044,-404
1778658160.050584,599617121765886223,2044,-185
1778658160.058276,599617121773578530,2044,-139
1778658160.065969,599617121781270837,2044,-156
1778658160.073661,599617121788963144,2044,-127
1778658160.081353,599617121796655451,2044,-115
1778658160.089046,599617121804347758,2044,-122
1778658160.096738,599617121812040065,2044,-115
1778658160.104430,599617121819732372,2044,-105
1778658160.112123,599617121827424679,2044,-93
1778658160.119815,599617121835116986,2044,-91
1778658160.127507,599617121842809293,2044,-93
1778658160.135200,599617121850501600,2044,-86
1778658160.142892,599617121858193907,2044,-76
1778658160.150584,599617121865886214,2044,-74
1778658160.137244,599617121873327166,2117,-67
1778658160.144936,599617121881019473,2117,-57
1778658160.152628,599617121888711780,2117,-48
1778658160.160321,599617121896404087,2117,-40
1778658160.168013,599617121904096394,2117,-33
1778658160.175705,599617121911788701,2117,-31
1778658160.183398,599617121919481008,2117,-28
1778658160.191090,599617121927173315,2117,-7
1778658160.198782,599617121934865622,2117,7
1778658160.206475,599617121942557929,2117,12
1778658160.214167,599617121950250236,2117,31
1778658160.221859,599617121957942543,2117,55
1778658160.229551,599617121965634850,2117,72
1778658160.237244,599617121973327157,2117,86
1778658160.244936,599617121981019464,2117,103
1778658160.252628,599617121988711771,2117,125
1778658160.260321,599617121996404078,2117,134
1778658160.268013,599617122004096385,2117,122
1778658160.275705,599617122011788692,2117,108
1778658160.283398,599617122019480999,2117,93
1778658160.291090,599617122027173306,2117,72
1778658160.298782,599617122034865613,2117,28
1778658160.306474,599617122042557920,2117,-24
1778658160.314167,599617122050250227,2117,-72
1778658160.321859,599617122057942534,2117,-113
1778658160.329551,599617122065634841,2117,-146
1778658160.337244,599617122073327148,2117,-170
1778658160.344936,599617122081019455,2117,-187
1778658160.352628,599617122088711762,2117,-199
1778658160.360321,599617122096404069,2117,-202
1778658160.368013,599617122104096376,2117,-204
1778658160.375705,599617122111788683,2117,-206
1778658160.383398,599617122119480990,2117,-202
1778658160.391090,599617122127173297,2117,-194
1778658160.398782,599617122134865604,2117,-189
1778658160.406475,599617122142557911,2117,-175
1778658160.414167,599617122150250218,2117,-165
1778658160.421859,599617122157942525,2117,-175
1778658160.429551,599617122165634832,2117,-175
1778658160.437244,599617122173327139,2117,-161
1778658160.444936,599617122181019446,2117,-151
1778658160.452628,599617122188711753,2117,-144
1778658160.460321,599617122196404060,2117,-137
1778658160.468013,599617122204096367,2117,-134
1778658160.475705,599617122211788674,2117,-129
1778658160.483397,599617122219480981,2117,-129
1778658160.491090,599617122227173288,2117,-127
1778658160.498782,599617122234865595,2117,-122
1778658160.506474,599617122242557902,2117,-122
1778658160.514167,599617122250250209,2117,-127
1778658160.521859,599617122257942516,2117,-137
1778658160.529552,599617122265634823,2117,-132
1778658160.537244,599617122273327130,2117,-113
1778658160.544936,599617122281019437,2117,-101
1778658160.552628,599617122288711744,2117,-108
1778658160.560321,599617122296404051,2117,-115
1778658160.568013,599617122304096358,2117,-110
1778658160.575705,599617122311788665,2117,-105
1778658160.583398,599617122319480972,2117,-110
1778658160.591090,599617122327173279,2117,-105
1778658160.598782,599617122334865586,2117,-101
1778658160.606474,599617122342557893,2117,-110
1778658160.614167,599617122350250200,2117,-113
1778658160.621859,599617122357942507,2117,-108
1778658160.629551,599617122365634814,2117,-105
1778658160.637244,599617122373327121,2117,-103
1778658160.644936,599617122381019428,2117,-96
1778658160.652628,599617122388711735,2117,-91
1778658160.660321,599617122396404042,2117,-98
1778658160.668013,599617122404096349,2117,-98
1778658160.675705,599617122411788656,2117,-93
1778658160.683398,599617122419480963,2117,-93
1778658160.691090,599617122427173270,2117,-91
1778658160.767225,599617122434614222,2190,-93
1778658160.774917,599617122442306529,2190,-91
1778658160.782610,599617122449998836,2190,-84
1778658160.790302,599617122457691143,2190,-88
1778658160.797994,599617122465383450,2190,-96
1778658160.805686,599617122473075757,2190,-93
1778658160.813379,599617122480768064,2190,-91
1778658160.821071,599617122488460371,2190,-91
1778658160.828763,599617122496152678,2190,-91
1778658160.836456,599617122503844985,2190,-88
1778658160.844148,599617122511537292,2190,-91
1778658160.851840,599617122519229599,2190,-96
1778658160.859533,599617122526921906,2190,-96
1778658160.867225,599617122534614213,2190,-93
1778658160.874917,599617122542306520,2190,-96
1778658160.882610,599617122549998827,2190,-98
1778658160.890302,599617122557691134,2190,-98
1778658160.897994,599617122565383441,2190,-101
1778658160.905687,599617122573075748,2190,-101
1778658160.913379,599617122580768055,2190,-93
1778658160.921071,599617122588460362,2190,-84
1778658160.928763,599617122596152669,2190,-88
1778658160.936456,599617122603844976,2190,-103
1778658160.944148,599617122611537283,2190,-103
1778658160.951840,599617122619229590,2190,-93
1778658160.959533,599617122626921897,2190,-93
1778658160.967225,599617122634614204,2190,-108
1778658160.974917,599617122642306511,2190,-108
1778658160.982610,599617122649998818,2190,-84
1778658160.990302,599617122657691125,2190,-69
1778658160.997994,599617122665383432,2190,-84
1778658161.005687,599617122673075739,2190,-96
1778658161.013379,599617122680768046,2190,-88
1778658161.021071,599617122688460353,2190,-91
1778658161.028764,599617122696152660,2190,-117
1778658161.036456,599617122703844967,2190,-129
1778658161.044148,599617122711537274,2190,-113
1778658161.051840,599617122719229581,2190,-115
1778658161.059533,599617122726921888,2190,-122
1778658161.067225,599617122734614195,2190,-113
1778658161.074917,599617122742306502,2190,-105
1778658161.082610,599617122749998809,2190,-115
1778658161.090302,599617122757691116,2190,-122
1778658161.097994,599617122765383423,2190,-101
1778658161.105686,599617122773075730,2190,-43
1778658161.113379,599617122780768037,2190,113
1778658161.121071,599617122788460344,2190,411
1778658161.128763,599617122796152651,2190,666
1778658161.136456,599617122803844958,2190,447
1778658161.144148,599617122811537265,2190,-182
1778658161.151840,599617122819229572,2190,-509
1778658161.159533,599617122826921879,2190,-339
1778658161.167225,599617122834614186,2190,-168
1778658161.174917,599617122842306493,2190,-161
1778658161.182610,599617122849998800,2190,-146
1778658161.190302,599617122857691107,2190,-125
1778658161.197994,599617122865383414,2190,-134
1778658161.205687,599617122873075721,2190,-122
1778658161.213379,599617122880768028,2190,-93
1778658161.221071,599617122888460335,2190,-101
1778658161.228763,599617122896152642,2190,-110
1778658161.236456,599617122903844949,2190,-91
1778658161.244148,599617122911537256,2190,-84
1778658161.251840,599617122919229563,2190,-88
1778658161.259533,599617122926921870,2190,-72
1778658161.267225,599617122934614177,2190,-67
1778658161.274917,599617122942306484,2190,-74
1778658161.282610,599617122949998791,2190,-57
1778658161.290302,599617122957691098,2190,-45
1778658161.297994,599617122965383405,2190,-50
1778658161.305686,599617122973075712,2190,-50
1778658161.313379,599617122980768019,2190,-31
1778658161.321071,599617122988460326,2190,-9
1778658161.341566,599617122995921622,2263,0
1778658161.349258,599617123003613929,2263,16
1778658161.356951,599617123011306236,2263,28
1778658161.364643,599617123018998543,2263,33
1778658161.372335,599617123026690850,2263,57
1778658161.380028,599617123034383157,2263,88
1778658161.387720,599617123042075464,2263,101
1778658161.395412,599617123049767771,2263,110
1778658161.403105,599617123057460078,2263,132
1778658161.410797,599617123065152385,2263,141
1778658161.418489,599617123072844692,2263,129
1778658161.426182,599617123080536999,2263,120
1778658161.433874,599617123088229306,2263,103
1778658161.441566,599617123095921613,2263,62
1778658161.449258,599617123103613920,2263,14
1778658161.456951,599617123111306227,2263,-28
1778658161.464643,599617123118998534,2263,-76
1778658161.472335,599617123126690841,2263,-113
1778658161.480028,599617123134383148,2263,-144
1778658161.487720,599617123142075455,2263,-173
1778658161.495412,599617123149767762,2263,-192
1778658161.503104,599617123157460069,2263,-202
1778658161.510797,599617123165152376,2263,-204
1778658161.518489,599617123172844683,2263,-206
1778658161.526181,599617123180536990,2263,-199
1778658161.533874,599617123188229297,2263,-192
1778658161.541566,599617123195921604,2263,-189
1778658161.549258,599617123203613911,2263,-185
1778658161.556951,599617123211306218,2263,-173
1778658161.564643,599617123218998525,2263,-173
1778658161.572335,599617123226690832,2263,-168
1778658161.580028,599617123234383139,2263,-165
1778658161.587720,599617123242075446,2263,-158
1778658161.595412,599617123249767753,2263,-146
1778658161.603105,599617123257460060,2263,-144
1778658161.610797,599617123265152367,2263,-149
1778658161.618489,599617123272844674,2263,-144
1778658161.626181,599617123280536981,2263,-129
1778658161.633874,599617123288229288,2263,-125
1778658161.641566,599617123295921595,2263,-134
1778658161.649258,599617123303613902,2263,-137
1778658161.656951,599617123311306209,2263,-134
1778658161.664643,599617123318998516,2263,-139
1778658161.672335,599617123326690823,2263,-134
1778658161.680027,599617123334383130,2263,-127
1778658161.687720,599617123342075437,2263,-132
1778658161.695412,599617123349767744,2263,-132
1778658161.703104,599617123357460051,2263,-122
1778658161.710797,599617123365152358,2263,-120
1778658161.718489,599617123372844665,2263,-125
1778658161.726182,599617123380536972,2263,-129
1778658161.733874,599617123388229279,2263,-125
1778658161.741566,599617123395921586,2263,-122
1778658161.749258,599617123403613893,2263,-122
1778658161.756951,599617123411306200,2263,-117
1778658161.764643,599617123418998507,2263,-120
1778658161.772335,599617123426690814,2263,-122
1778658161.780028,599617123434383121,2263,-120
1778658161.787720,599617123442075428,2263,-120
1778658161.795412,599617123449767735,2263,-120
1778658161.803104,599617123457460042,2263,-120
1778658161.810797,599617123465152349,2263,-120
1778658161.818489,599617123472844656,2263,-120
1778658161.826181,599617123480536963,2263,-122
1778658161.833874,599617123488229270,2263,-120
1778658161.841566,599617123495921577,2263,-120
1778658161.849258,599617123503613884,2263,-117
1778658161.856951,599617123511306191,2263,-117
1778658161.864643,599617123518998498,2263,-122
1778658161.872335,599617123526690805,2263,-120
1778658161.880028,599617123534383112,2263,-120
1778658161.887720,599617123542075419,2263,-125
1778658161.895412,599617123549767726,2263,-125
1778658161.847010,599617123557218852,2336,-125
1778658161.854702,599617123564911159,2336,-125
1778658161.862395,599617123572603466,2336,-129
1778658161.870087,599617123580295773,2336,-134
1778658161.877779,599617123587988080,2336,-132
1778658161.885472,599617123595680387,2336,-127
1778658161.893164,599617123603372694,2336,-120
1778658161.900856,599617123611065001,2336,-108
1778658161.908549,599617123618757308,2336,-96
1778658161.916241,599617123626449615,2336,-96
1778658161.923933,599617123634141922,2336,-113
1778658161.931626,599617123641834229,2336,-122
1778658161.939318,599617123649526536,2336,-120
1778658161.947010,599617123657218843,2336,-125
1778658161.954702,599617123664911150,2336,-137
1778658161.962395,599617123672603457,2336,-144
1778658161.970087,599617123680295764,2336,-144
1778658161.977779,599617123687988071,2336,-139
1778658161.985472,599617123695680378,2336,-134
1778658161.993164,599617123703372685,2336,-129
1778658162.000856,599617123711064992,2336,-132
1778658162.008548,599617123718757299,2336,-134
1778658162.016241,599617123726449606,2336,-129
1778658162.023933,599617123734141913,2336,-125
1778658162.031626,599617123741834220,2336,-93
1778658162.039318,599617123749526527,2336,40
1778658162.047010,599617123757218834,2336,327
1778658162.054703,599617123764911141,2336,622
1778658162.062395,599617123772603448,2336,509
1778658162.070087,599617123780295755,2336,-88
1778658162.077779,599617123787988062,2336,-507
1778658162.085472,599617123795680369,2336,-413
1778658162.093164,599617123803372676,2336,-216
1778658162.100856,599617123811064983,2336,-173
1778658162.108549,599617123818757290,2336,-168
1778658162.116241,599617123826449597,2336,-144
1778658162.123933,599617123834141904,2336,-137
1778658162.131625,599617123841834211,2336,-134
1778658162.139318,599617123849526518,2336,-125
1778658162.147010,599617123857218825,2336,-127
1778658162.154702,599617123864911132,2336,-125
1778658162.162395,599617123872603439,2336,-110
1778658162.170087,599617123880295746,2336,-103
1778658162.177779,599617123887988053,2336,-101
1778658162.185472,599617123895680360,2336,-96
1778658162.193164,599617123903372667,2336,-86
1778658162.200856,599617123911064974,2336,-76
1778658162.208549,599617123918757281,2336,-74
1778658162.216241,599617123926449588,2336,-69
1778658162.223933,599617123934141895,2336,-62
1778658162.231626,599617123941834202,2336,-55
1778658162.239318,599617123949526509,2336,-48
1778658162.247010,599617123957218816,2336,-45
1778658162.254702,599617123964911123,2336,-24
1778658162.262395,599617123972603430,2336,2
1778658162.270087,599617123980295737,2336,14
1778658162.277779,599617123987988044,2336,28
1778658162.285472,599617123995680351,2336,48
1778658162.293164,599617124003372658,2336,69
1778658162.300856,599617124011064965,2336,86
1778658162.308548,599617124018757272,2336,101
1778658162.316241,599617124026449579,2336,110
1778658162.323933,599617124034141886,2336,113
1778658162.331625,599617124041834193,2336,108
1778658162.339318,599617124049526500,2336,96
1778658162.347010,599617124057218807,2336,74
1778658162.354702,599617124064911114,2336,50
1778658162.362395,599617124072603421,2336,12
1778658162.370087,599617124080295728,2336,-43
1778658162.377779,599617124087988035,2336,-91
1778658162.385472,599617124095680342,2336,-132
1778658162.393164,599617124103372649,2336,-168
1778658162.400856,599617124111064956,2336,-189
1778658162.436358,599617124118505908,2409,-204
1778658162.444051,599617124126198215,2409,-216
1778658162.451743,599617124133890522,2409,-221
1778658162.459435,599617124141582829,2409,-216
1778658162.467127,599617124149275136,2409,-211
1778658162.474820,599617124156967443,2409,-211
1778658162.482512,599617124164659750,2409,-211
1778658162.490204,599617124172352057,2409,-209
1778658162.497897,599617124180044364,2409,-199
1778658162.505589,599617124187736671,2409,-187
1778658162.513281,599617124195428978,2409,-182
1778658162.520974,599617124203121285,2409,-182
1778658162.528666,599617124210813592,2409,-180
1778658162.536358,599617124218505899,2409,-168
1778658162.544050,599617124226198206,2409,-161
1778658162.551743,599617124233890513,2409,-161
1778658162.559435,599617124241582820,2409,-158
1778658162.567127,599617124249275127,2409,-153
1778658162.574820,599617124256967434,2409,-156
1778658162.582512,599617124264659741,2409,-153
1778658162.590204,599617124272352048,2409,-149
1778658162.597897,599617124280044355,2409,-146
1778658162.605589,599617124287736662,2409,-146
1778658162.613281,599617124295428969,2409,-151
1778658162.620974,599617124303121276,2409,-156
1778658162.628666,599617124310813583,2409,-153
1778658162.636358,599617124318505890,2409,-146
1778658162.644051,599617124326198197,2409,-144
1778658162.651743,599617124333890504,2409,-144
1778658162.659435,599617124341582811,2409,-146
1778658162.667127,599617124349275118,2409,-146
1778658162.674820,599617124356967425,2409,-144
1778658162.682512,599617124364659732,2409,-141
1778658162.690204,599617124372352039,2409,-139
1778658162.697897,599617124380044346,2409,-139
1778658162.705589,599617124387736653,2409,-137
1778658162.713281,599617124395428960,2409,-137
1778658162.720973,599617124403121267,2409,-137
1778658162.728666,599617124410813574,2409,-134
1778658162.736358,599617124418505881,2409,-137
1778658162.744051,599617124426198188,2409,-137
1778658162.751743,599617124433890495,2409,-134
1778658162.759435,599617124441582802,2409,-127
1778658162.767128,599617124449275109,2409,-125
1778658162.774820,599617124456967416,2409,-127
1778658162.782512,599617124464659723,2409,-122
1778658162.790204,599617124472352030,2409,-120
1778658162.797897,599617124480044337,2409,-125
1778658162.805589,599617124487736644,2409,-122
1778658162.813281,599617124495428951,2409,-120
1778658162.820974,599617124503121258,2409,-120
1778658162.828666,599617124510813565,2409,-122
1778658162.836358,599617124518505872,2409,-122
1778658162.844050,599617124526198179,2409,-115
1778658162.851743,599617124533890486,2409,-120
1778658162.859435,599617124541582793,2409,-122
1778658162.867127,599617124549275100,2409,-115
1778658162.874820,599617124556967407,2409,-110
1778658162.882512,599617124564659714,2409,-113
1778658162.890204,599617124572352021,2409,-117
1778658162.897897,599617124580044328,2409,-122
1778658162.905589,599617124587736635,2409,-115
1778658162.913281,599617124595428942,2409,-108
1778658162.920974,599617124603121249,2409,-108
1778658162.928666,599617124610813556,2409,-113
1778658162.936358,599617124618505863,2409,-122
1778658162.944051,599617124626198170,2409,-120
1778658162.951743,599617124633890477,2409,-108
1778658162.959435,599617124641582784,2409,-108
1778658162.967127,599617124649275091,2409,-117
1778658162.974820,599617124656967398,2409,-110
1778658162.982512,599617124664659705,2409,-105
1778658162.990204,599617124672352012,2409,-117
1778658162.973056,599617124679798047,2482,-115
1778658162.980749,599617124687490354,2482,-93
1778658162.988441,599617124695182661,2482,-72
1778658162.996133,599617124702874968,2482,-72
1778658163.003825,599617124710567275,2482,-88
1778658163.011518,599617124718259582,2482,-98
1778658163.019210,599617124725951889,2482,-93
1778658163.026902,599617124733644196,2482,-98
1778658163.034595,599617124741336503,2482,-115
1778658163.042287,599617124749028810,2482,-117
1778658163.049979,599617124756721117,2482,-91
1778658163.057672,599617124764413424,2482,-81
1778658163.065364,599617124772105731,2482,-101
1778658163.073056,599617124779798038,2482,-103
1778658163.080749,599617124787490345,2482,-108
1778658163.088441,599617124795182652,2482,-122
1778658163.096133,599617124802874959,2482,-117
1778658163.103826,599617124810567266,2482,-93
1778658163.111518,599617124818259573,2482,14
1778658163.119210,599617124825951880,2482,262
1778658163.126902,599617124833644187,2482,550
1778658163.134595,599617124841336494,2482,598
1778658163.142287,599617124849028801,2482,161
1778658163.149979,599617124856721108,2482,-387
1778658163.157672,599617124864413415,2482,-466
1778658163.165364,599617124872105722,2482,-254
1778658163.173056,599617124879798029,2482,-161
1778658163.180749,599617124887490336,2482,-161
1778658163.188441,599617124895182643,2482,-137
1778658163.196133,599617124902874950,2482,-127
1778658163.203825,599617124910567257,2482,-139
1778658163.211518,599617124918259564,2482,-122
1778658163.219210,599617124925951871,2482,-101
1778658163.226902,599617124933644178,2482,-101
1778658163.234595,599617124941336485,2482,-103
1778658163.242287,599617124949028792,2482,-96
1778658163.249979,599617124956721099,2482,-91
1778658163.257672,599617124964413406,2482,-91
1778658163.265364,599617124972105713,2482,-86
1778658163.273056,599617124979798020,2482,-84
1778658163.280749,599617124987490327,2482,-79
1778658163.288441,599617124995182634,2482,-67
1778658163.296133,599617125002874941,2482,-57
1778658163.303826,599617125010567248,2482,-48
1778658163.311518,599617125018259555,2482,-40
1778658163.319210,599617125025951862,2482,-38
1778658163.326902,599617125033644169,2482,-24
1778658163.334595,599617125041336476,2482,0
1778658163.342287,599617125049028783,2482,9
1778658163.349979,599617125056721090,2482,16
1778658163.357672,599617125064413397,2482,31
1778658163.365364,599617125072105704,2482,43
1778658163.373056,599617125079798011,2482,55
1778658163.380749,599617125087490318,2482,79
1778658163.388441,599617125095182625,2482,91
1778658163.396133,599617125102874932,2482,93
1778658163.403826,599617125110567239,2482,108
1778658163.411518,599617125118259546,2482,113
1778658163.419210,599617125125951853,2482,88
1778658163.426903,599617125133644160,2482,55
1778658163.434595,599617125141336467,2482,21
1778658163.442287,599617125149028774,2482,-19
1778658163.449979,599617125156721081,2482,-64
1778658163.457672,599617125164413388,2482,-108
1778658163.465364,599617125172105695,2482,-146
1778658163.473056,599617125179798002,2482,-177
1778658163.480749,599617125187490309,2482,-194
1778658163.488441,599617125195182616,2482,-206
1778658163.496133,599617125202874923,2482,-221
1778658163.503825,599617125210567230,2482,-226
1778658163.511518,599617125218259537,2482,-211
1778658163.519210,599617125225951844,2482,-194
1778658163.526902,599617125233644151,2482,-194
1778658163.512514,599617125241110538,2555,-194
1778658163.520206,599617125248802845,2555,-187
1778658163.527898,599617125256495152,2555,-185
1778658163.535590,599617125264187459,2555,-185
1778658163.543283,599617125271879766,2555,-180
1778658163.550975,599617125279572073,2555,-175
1778658163.558667,599617125287264380,2555,-173
1778658163.566360,599617125294956687,2555,-170
1778658163.574052,599617125302648994,2555,-165
1778658163.581744,599617125310341301,2555,-161
1778658163.589437,599617125318033608,2555,-158
1778658163.597129,599617125325725915,2555,-158
1778658163.604821,599617125333418222,2555,-158
1778658163.612514,599617125341110529,2555,-153
1778658163.620206,599617125348802836,2555,-151
1778658163.627898,599617125356495143,2555,-156
1778658163.635591,599617125364187450,2555,-161
1778658163.643283,599617125371879757,2555,-161
1778658163.650975,599617125379572064,2555,-158
1778658163.658668,599617125387264371,2555,-153
1778658163.666360,599617125394956678,2555,-156
1778658163.674052,599617125402648985,2555,-158
1778658163.681744,599617125410341292,2555,-156
1778658163.689437,599617125418033599,2555,-153
1778658163.697129,599617125425725906,2555,-156
1778658163.704821,599617125433418213,2555,-151
1778658163.712514,599617125441110520,2555,-144
1778658163.720206,599617125448802827,2555,-139
1778658163.727898,599617125456495134,2555,-141
1778658163.735590,599617125464187441,2555,-146
1778658163.743283,599617125471879748,2555,-151
1778658163.750975,599617125479572055,2555,-151
1778658163.758667,599617125487264362,2555,-146
1778658163.766360,599617125494956669,2555,-144
1778658163.774052,599617125502648976,2555,-146
1778658163.781744,599617125510341283,2555,-149
1778658163.789437,599617125518033590,2555,-149
1778658163.797129,599617125525725897,2555,-149
1778658163.804821,599617125533418204,2555,-149
1778658163.812514,599617125541110511,2555,-151
1778658163.820206,599617125548802818,2555,-156
1778658163.827898,599617125556495125,2555,-153
1778658163.835591,599617125564187432,2555,-149
1778658163.843283,599617125571879739,2555,-146
1778658163.850975,599617125579572046,2555,-144
1778658163.858667,599617125587264353,2555,-141
1778658163.866360,599617125594956660,2555,-144
1778658163.874052,599617125602648967,2555,-146
1778658163.881744,599617125610341274,2555,-141
